1575319994.999888,0.0
1575319995.000393,2129.64
1575319995.0017788,2119.52
1575319995.0023549,2106.51
1575319995.003474,2093.15
1575319995.0040598,2074.43
1575319995.004844,2181.21
1575319995.005715,2186.18
1575319995.006119,2185.16
1575319995.0074172,2178.81
1575319995.0078468,2169.37
1575319995.0082161,2160.88
1575319995.0086458,2149.2
1575319995.00914,2137.7
1575319995.009515,2129.64
1575319995.0099368,2119.52
1575319995.010658,2106.51
1575319995.0110111,2093.15
1575319995.011415,2074.43
1575319996.6062489,0.0
1575319996.6104782,0.0
1575319996.618423,0.0
1575319996.622643,0.0
1575319996.630929,0.0
1575319996.634957,0.0
1575319996.64307,0.0
1575319996.651665,15.48
1575319996.655351,15.48
1575319996.6635368,15.48
1575319996.671752,59.97
1575319996.68004,166.94
1575319996.688195,412.31
1575319996.699733,658.48
1575319996.704544,818.29
1575319996.712734,949.36
1575319996.720974,1058.9
1575319996.7336352,1172.48
1575319996.741343,1246.64
1575319996.7499561,1318.84
1575319996.7618089,1372.22
1575319996.770205,1405.99
1575319996.778616,1441.9
1575319996.786597,1472.56
1575319996.799381,1495.98
1575319996.807265,1507.01
1575319996.816015,1509.69
1575319996.8275871,1502.26
1575319996.835646,1492.25
1575319996.8438761,1479.35
1575319996.851968,1471.08
1575319996.8649118,1468.89
1575319996.872593,1470.25
1575319996.8815339,1474.33
1575319996.8933609,1478.11
1575319996.9010649,1482.11
1575319996.9095511,1485.14
1575319996.9174762,1487.28
1575319996.930881,1490.33
1575319996.9382,1491.88
1575319996.947114,1490.87
1575319996.954441,1487.14
1575319996.966979,1482.84
1575319996.974972,1480.62
1575319996.9836202,1479.11
1575319996.995462,1477.39
1575319997.0035431,1475.5
1575319997.011932,1472.78
1575319997.019997,1470.35
1575319997.0332642,1469.0
1575319997.040697,1468.09
1575319997.049268,1465.78
1575319997.061141,1461.55
1575319997.069219,1457.8
1575319997.077434,1454.11
1575319997.085511,1451.82
1575319997.099346,1450.44
1575319997.106167,1447.86
1575319997.115365,1444.81
1575319997.126562,1443.27
1575319997.13458,1444.3
1575319997.142874,1448.08
1575319997.151079,1450.04
1575319997.164406,1449.75
1575319997.171468,1450.16
1575319997.180056,1455.88
1575319997.192182,1471.81
1575319997.200788,1493.58
1575319997.2086048,1510.39
1575319997.2170932,1525.98
1575319997.2289321,1534.08
1575319997.237189,1536.78
1575319997.245451,1539.04
1575319997.2576299,1543.42
1575319997.266304,1549.67
1575319997.2741172,1554.62
1575319997.282806,1560.84
1575319997.298604,1567.94
1575319997.302573,1572.89
1575319997.3108969,1575.95
1575319997.323004,1575.92
1575319997.3319669,1576.85
1575319997.3395681,1582.41
1575319997.348394,1591.91
1575319997.3600872,1599.7
1575319997.368219,1605.53
1575319997.3766909,1605.43
1575319997.388674,1601.98
1575319997.3974771,1596.01
1575319997.404916,1589.2
1575319997.413373,1583.59
1575319997.425591,1577.93
1575319997.434193,1576.66
1575319997.441922,1579.62
1575319997.454174,1586.05
1575319997.4625669,1592.47
1575319997.470666,1596.27
1575319997.4788108,1599.06
1575319997.491201,1599.66
1575319997.499893,1598.7
1575319997.507641,1597.11
1575319997.519577,1594.03
1575319997.528264,1589.8
1575319997.535979,1585.71
1575319997.544364,1579.63
1575319997.556691,1573.36
1575319997.565734,1569.47
1575319997.5730581,1565.97
1575319997.585172,1564.42
1575319997.5937018,1564.67
1575319997.601561,1566.07
1575319997.6101649,1568.2
1575319997.622002,1569.75
1575319997.6313732,1570.92
1575319997.638402,1571.7
1575319997.650662,1572.97
1575319997.658973,1575.29
1575319997.66749,1576.39
1575319997.675427,1576.1
1575319997.687718,1574.46
1575319997.697851,1571.11
1575319997.704148,1567.21
1575319997.716867,1561.66
1575319997.724616,1556.58
1575319997.7338839,1552.69
1575319997.7411149,1550.74
1575319997.753334,1550.07
1575319997.761743,1551.05
1575319997.769631,1552.23
1575319997.7824562,1553.59
1575319997.79014,1555.61
1575319997.7990558,1558.7
1575319997.8065002,1564.58
1575319997.818681,1570.67
1575319997.827102,1574.19
1575319997.835007,1575.75
1575319997.848054,1574.35
1575319997.8556302,1571.4
1575319997.8647208,1567.3
1575319997.872064,1567.31
1575319997.8841212,1572.98
1575319997.892649,1585.9
1575319997.900984,1600.02
1575319997.912987,1609.45
1575319997.920992,1616.59
1575319997.929353,1618.83
1575319997.937742,1619.23
1575319997.9502342,1620.72
1575319997.958014,1623.87
1575319997.9669771,1627.24
1575319997.978522,1628.41
1575319997.986602,1627.65
1575319997.995137,1627.39
1575319998.002951,1631.23
1575319998.015968,1645.28
1575319998.0237079,1670.97
1575319998.0324962,1698.68
1575319998.043947,1738.89
1575319998.0520809,1780.25
1575319998.060456,1811.2
1575319998.0684721,1845.45
1575319998.0815518,1873.66
1575319998.089144,1889.85
1575319998.098058,1901.55
1575319998.109797,1907.29
1575319998.1177652,1912.03
1575319998.1259332,1920.13
1575319998.134367,1925.57
1575319998.146425,1923.21
1575319998.154479,1911.14
1575319998.162834,1892.41
1575319998.175066,1874.24
1575319998.183914,1846.67
1575319998.191355,1812.01
1575319998.200137,1774.07
1575319998.212079,1747.36
1575319998.22014,1722.17
1575319998.2285051,1703.55
1575319998.240591,1689.11
1575319998.2494771,1668.19
1575319998.257229,1644.17
1575319998.265825,1623.99
1575319998.277749,1599.2
1575319998.2855868,1578.37
1575319998.294302,1566.98
1575319998.306315,1560.07
1575319998.314902,1557.69
1575319998.3223941,1554.94
1575319998.3317912,1549.18
1575319998.3431911,1542.29
1575319998.3511622,1536.61
1575319998.359395,1530.27
1575319998.3716748,1526.74
1575319998.3808582,1527.0
1575319998.387965,1529.66
1575319998.396821,1532.33
1575319998.408651,1533.33
1575319998.417079,1532.85
1575319998.4250188,1530.67
1575319998.437431,1526.68
1575319998.4455948,1522.88
1575319998.4535732,1519.77
1575319998.46193,1520.42
1575319998.4742541,1522.47
1575319998.483039,1523.69
1575319998.490633,1521.28
1575319998.502584,1517.08
1575319998.5110972,1510.7
1575319998.51903,1504.32
1575319998.5275,1500.69
1575319998.5396638,1500.5
1575319998.548488,1506.56
1575319998.556166,1514.91
1575319998.568148,1526.16
1575319998.57675,1533.64
1575319998.5845902,1535.2
1575319998.593119,1531.44
1575319998.605078,1522.6
1575319998.615259,1514.41
1575319998.6216261,1506.46
1575319998.6343539,1503.21
1575319998.642005,1503.36
1575319998.650849,1505.19
1575319998.6583328,1508.42
1575319998.670856,1512.58
1575319998.679115,1515.43
1575319998.687246,1516.08
1575319998.69984,1511.45
1575319998.707754,1504.28
1575319998.716363,1492.64
1575319998.7242491,1482.27
1575319998.736195,1477.23
1575319998.74458,1475.42
1575319998.752583,1477.39
1575319998.7656581,1481.08
1575319998.7732139,1486.83
1575319998.7822552,1491.16
1575319998.789631,1491.85
1575319998.801624,1489.46
1575319998.8103309,1484.7
1575319998.818629,1480.37
1575319998.83159,1475.91
1575319998.838719,1473.77
1575319998.847889,1474.02
1575319998.8549929,1476.49
1575319998.867497,1481.02
1575319998.875572,1486.2
1575319998.883581,1494.09
1575319998.8982651,1500.91
1575319998.904045,1502.95
1575319998.912477,1500.97
1575319998.9205,1496.69
1575319998.933206,1493.29
1575319998.94125,1492.13
1575319998.949929,1492.06
1575319998.961802,1491.67
1575319998.9696572,1489.21
1575319998.978067,1483.56
1575319998.985994,1477.58
1575319998.9991958,1474.07
1575319999.006644,1470.55
1575319999.0157812,1467.36
1575319999.027184,1465.15
1575319999.0351622,1463.22
1575319999.0437188,1463.37
1575319999.051542,1465.54
1575319999.064605,1470.15
1575319999.072175,1474.02
1575319999.0812669,1475.24
1575319999.092834,1474.61
1575319999.101076,1473.4
1575319999.1092732,1473.34
1575319999.1181152,1474.59
1575319999.1303308,1477.58
1575319999.137571,1480.79
1575319999.145816,1481.77
1575319999.158185,1480.59
1575319999.1667168,1477.95
1575319999.1746838,1475.53
1575319999.183733,1473.03
1575319999.195171,1471.03
1575319999.2030551,1469.39
1575319999.211735,1467.51
1575319999.223736,1467.09
1575319999.232468,1467.85
1575319999.2401989,1469.42
1575319999.248659,1471.14
1575319999.2604978,1472.59
1575319999.268621,1474.66
1575319999.277212,1477.42
1575319999.289237,1479.44
1575319999.297963,1479.46
1575319999.305675,1475.25
1575319999.314535,1469.93
1575319999.325979,1465.43
1575319999.334254,1465.73
1575319999.342638,1468.99
1575319999.354653,1474.11
1575319999.363093,1477.97
1575319999.371024,1480.42
1575319999.3794088,1481.55
1575319999.3915882,1481.32
1575319999.400519,1477.43
1575319999.4080262,1471.49
1575319999.420388,1462.11
1575319999.428714,1453.62
1575319999.4366431,1448.95
1575319999.445072,1446.63
1575319999.4573162,1447.13
1575319999.466066,1447.79
1575319999.473737,1447.86
1575319999.4856708,1448.29
1575319999.494227,1450.06
1575319999.50227,1454.3
1575319999.510562,1459.34
1575319999.522783,1462.82
1575319999.5316322,1465.73
1575319999.5390568,1466.51
1575319999.5513039,1465.82
1575319999.5597389,1463.18
1575319999.567808,1459.28
1575319999.57617,1456.11
1575319999.588285,1454.17
1575319999.5964181,1459.0
1575319999.604793,1474.9
1575319999.617188,1495.73
1575319999.6252532,1526.2
1575319999.6345348,1553.55
1575319999.641366,1570.07
1575319999.6537228,1584.21
1575319999.6620421,1593.64
1575319999.67009,1600.18
1575319999.683035,1609.33
1575319999.6908102,1619.1
1575319999.700653,1625.67
1575319999.7071848,1631.55
1575319999.71923,1634.31
1575319999.7276502,1635.63
1575319999.735723,1637.58
1575319999.748766,1639.33
1575319999.756305,1639.41
1575319999.765175,1636.98
1575319999.772631,1632.87
1575319999.7846751,1630.42
1575319999.7932951,1629.9
1575319999.8020558,1630.93
1575319999.814362,1628.92
1575319999.821548,1616.03
1575319999.8309271,1590.7
1575319999.838082,1560.02
1575319999.850622,1537.07
1575319999.8585489,1513.75
1575319999.867202,1496.94
1575319999.879144,1487.18
1575319999.8873248,1477.68
1575319999.8991702,1470.96
1575319999.903578,1467.66
1575319999.916321,1464.38
1575319999.924277,1460.33
1575319999.932965,1456.32
1575319999.9447649,1451.99
1575319999.952706,1450.35
1575319999.9611478,1451.39
1575319999.969067,1454.92
1575319999.982281,1459.33
1575319999.989753,1461.83
1575319999.9986088,1462.17
1575320000.0103948,1459.03
1575320000.018168,1454.0
1575320000.026813,1446.23
1575320000.034831,1438.69
1575320000.04723,1435.33
1575320000.055112,1437.53
1575320000.064258,1446.47
1575320000.075583,1458.38
1575320000.083921,1467.24
1575320000.09201,1474.63
1575320000.100576,1476.95
1575320000.113405,1476.72
1575320000.121095,1476.53
1575320000.1288161,1478.15
1575320000.141103,1479.42
1575320000.1499012,1477.98
1575320000.157603,1472.23
1575320000.166285,1466.88
1575320000.178284,1462.18
1575320000.186332,1459.57
1575320000.194603,1457.54
1575320000.206645,1454.56
1575320000.2156749,1450.21
1575320000.223197,1445.3
1575320000.232036,1437.71
1575320000.243802,1431.42
1575320000.251678,1429.73
1575320000.260041,1432.31
1575320000.272324,1438.52
1575320000.282431,1444.48
1575320000.288528,1450.24
1575320000.296936,1454.18
1575320000.309271,1457.54
1575320000.317885,1460.58
1575320000.325601,1464.3
1575320000.337688,1467.47
1575320000.345978,1469.69
1575320000.354321,1472.62
1575320000.362387,1475.48
1575320000.3747048,1476.25
1575320000.383978,1473.65
1575320000.391042,1468.97
1575320000.403432,1465.93
1575320000.411788,1464.53
1575320000.41967,1465.9
1575320000.42809,1468.55
1575320000.4404411,1473.83
1575320000.449076,1480.24
1575320000.456704,1485.41
1575320000.468736,1491.19
1575320000.477275,1495.48
1575320000.4851542,1498.09
1575320000.493811,1500.47
1575320000.505795,1501.93
1575320000.5157871,1502.11
1575320000.522054,1499.84
1575320000.5343318,1494.43
1575320000.542798,1488.03
1575320000.5513742,1484.18
1575320000.559096,1482.97
1575320000.571307,1486.14
1575320000.579508,1492.05
1575320000.587717,1501.99
1575320000.6004128,1510.38
1575320000.608126,1513.44
1575320000.616896,1512.81
1575320000.624558,1509.42
1575320000.6368818,1506.04
1575320000.645041,1502.04
1575320000.653095,1499.29
1575320000.6674318,1497.73
1575320000.6737869,1495.89
1575320000.682553,1493.81
1575320000.6901991,1492.55
1575320000.702251,1492.73
1575320000.71062,1494.92
1575320000.7186072,1497.46
1575320000.7322261,1500.23
1575320000.73935,1502.42
1575320000.7483149,1503.97
1575320000.755449,1505.97
1575320000.767751,1508.86
1575320000.775931,1511.57
1575320000.784178,1512.81
1575320000.796735,1513.59
1575320000.804872,1514.53
1575320000.8129358,1515.9
1575320000.821203,1518.18
1575320000.8338602,1520.09
1575320000.84164,1521.67
1575320000.850213,1525.86
1575320000.8622668,1532.2
1575320000.870281,1536.67
1575320000.8786318,1537.67
1575320000.8866298,1533.23
1575320000.899483,1528.99
1575320000.907341,1527.35
1575320000.9158862,1531.76
1575320000.927708,1538.15
1575320000.9357371,1546.11
1575320000.944062,1550.8
1575320000.952148,1550.76
1575320000.965087,1545.57
1575320000.972832,1537.21
1575320000.981529,1532.29
1575320000.9935071,1532.77
1575320001.001353,1541.11
1575320001.009728,1553.36
1575320001.018251,1561.46
1575320001.0301828,1563.24
1575320001.038295,1553.64
1575320001.047786,1540.5
1575320001.0587862,1522.32
1575320001.0673301,1508.07
1575320001.0751538,1502.94
1575320001.083679,1506.49
1575320001.09829,1518.04
1575320001.103814,1527.97
1575320001.1120799,1535.03
1575320001.124396,1533.66
1575320001.133187,1528.42
1575320001.140689,1522.74
1575320001.1501272,1522.54
1575320001.161163,1526.19
1575320001.169179,1531.87
1575320001.1775439,1535.06
1575320001.1855779,1534.09
1575320001.1986701,1529.05
1575320001.206317,1522.01
1575320001.215193,1517.77
1575320001.2269492,1517.19
1575320001.234719,1523.31
1575320001.243258,1538.15
1575320001.251588,1558.0
1575320001.264553,1593.51
1575320001.271631,1638.12
1575320001.2807732,1676.5
1575320001.292199,1722.78
1575320001.300786,1763.75
1575320001.308748,1793.4
1575320001.3176541,1830.69
1575320001.329111,1871.82
1575320001.337176,1906.99
1575320001.345551,1950.89
1575320001.357801,1990.4
1575320001.3670568,2016.82
1575320001.374293,2043.98
1575320001.382935,2068.37
1575320001.3946,2087.46
1575320001.402693,2107.51
1575320001.4111202,2121.2
1575320001.423349,2130.17
1575320001.432012,2141.61
1575320001.43973,2150.68
1575320001.448601,2153.21
1575320001.4603882,2148.92
1575320001.468215,2138.54
1575320001.476757,2124.34
1575320001.48871,2110.86
1575320001.498764,2093.27
1575320001.505242,2078.22
1575320001.514946,2068.5
1575320001.525774,2057.68
1575320001.5340202,2046.96
1575320001.542209,2037.09
1575320001.5545,2023.24
1575320001.562586,2008.75
1575320001.570814,1996.58
1575320001.5790238,1979.47
1575320001.591216,1958.13
1575320001.600024,1939.09
1575320001.607595,1918.42
1575320001.6197162,1907.59
1575320001.629168,1907.51
1575320001.636183,1914.13
1575320001.644622,1919.76
1575320001.656736,1918.57
1575320001.6664891,1908.13
1575320001.67329,1890.94
1575320001.68525,1875.12
1575320001.693887,1853.96
1575320001.7016902,1831.85
1575320001.710212,1811.94
1575320001.722351,1798.73
1575320001.731204,1784.43
1575320001.738515,1771.03
1575320001.7507572,1761.9
1575320001.758987,1754.5
1575320001.7677739,1750.51
1575320001.77555,1745.92
1575320001.787724,1734.94
1575320001.796032,1721.18
1575320001.804311,1711.48
1575320001.8170528,1701.74
1575320001.824651,1692.84
1575320001.8332438,1685.8
1575320001.84125,1677.59
1575320001.85326,1671.29
1575320001.861693,1667.65
1575320001.8697789,1662.65
1575320001.882633,1656.69
1575320001.89036,1652.06
1575320001.899104,1646.64
1575320001.9067788,1637.7
1575320001.9187331,1624.48
1575320001.9273531,1603.51
1575320001.935164,1589.24
1575320001.948421,1590.81
1575320001.955864,1602.68
1575320001.965011,1623.56
1575320001.9722219,1641.53
1575320001.984319,1650.51
1575320001.9927711,1656.54
1575320002.001566,1658.88
1575320002.013221,1658.71
1575320002.02118,1657.15
1575320002.0294971,1657.2
1575320002.037591,1660.7
1575320002.050352,1668.18
1575320002.058167,1675.52
1575320002.0677829,1678.45
1575320002.078791,1676.7
1575320002.086763,1669.74
1575320002.095205,1662.79
1575320002.1032052,1657.17
1575320002.1161091,1658.81
1575320002.123662,1664.75
1575320002.132511,1673.6
1575320002.1442401,1679.39
1575320002.1522508,1680.56
1575320002.160661,1676.43
1575320002.168695,1665.9
1575320002.181636,1651.33
1575320002.1893618,1637.25
1575320002.198275,1616.45
1575320002.210003,1596.44
1575320002.217908,1584.97
1575320002.226312,1577.71
1575320002.235352,1574.51
1575320002.24722,1570.73
1575320002.254814,1560.67
1575320002.2630458,1546.28
1575320002.275305,1534.83
1575320002.283863,1521.09
1575320002.291739,1506.19
1575320002.3004851,1493.39
1575320002.31217,1479.88
1575320002.320341,1472.13
1575320002.3287199,1467.8
1575320002.340606,1458.78
1575320002.349561,1441.26
1575320002.3573718,1423.27
1575320002.366185,1401.09
1575320002.377671,1381.61
1575320002.3857212,1367.25
1575320002.3940759,1349.32
1575320002.4063501,1329.19
1575320002.416106,1304.81
1575320002.422776,1282.69
1575320002.432013,1256.3
1575320002.443291,1233.8
1575320002.4512918,1217.38
1575320002.459808,1197.24
1575320002.4717739,1178.52
1575320002.4808261,1166.36
1575320002.48836,1155.52
1575320002.4978502,1149.14
1575320002.5086641,1147.23
1575320002.517447,1147.97
1575320002.52525,1151.25
1575320002.5372212,1155.31
1575320002.5456681,1161.23
1575320002.55371,1167.21
1575320002.5621078,1172.02
1575320002.574442,1179.01
1575320002.5832052,1186.14
1575320002.5907059,1190.87
1575320002.602863,1195.75
1575320002.6111271,1201.43
1575320002.619155,1206.74
1575320002.627787,1213.34
1575320002.639759,1219.79
1575320002.648958,1225.84
1575320002.65612,1230.5
1575320002.6684978,1235.8
1575320002.6769102,1239.64
1575320002.684764,1241.08
1575320002.6932669,1240.67
1575320002.7052412,1240.31
1575320002.714637,1241.99
1575320002.7217522,1247.03
1575320002.7342138,1253.92
1575320002.742251,1259.21
1575320002.7508411,1262.86
1575320002.7586591,1262.43
1575320002.771011,1259.99
1575320002.779264,1256.67
1575320002.787348,1255.02
1575320002.799981,1255.76
1575320002.807622,1259.34
1575320002.816502,1264.4
1575320002.824391,1267.85
1575320002.836319,1270.68
1575320002.8447108,1271.53
1575320002.8527098,1271.06
1575320002.865812,1269.72
1575320002.8733718,1268.87
1575320002.882457,1269.02
1575320002.8897421,1270.18
1575320002.9017842,1273.69
1575320002.9103339,1281.0
1575320002.918255,1290.35
1575320002.9311519,1306.01
1575320002.9386399,1323.05
1575320002.9480379,1334.51
1575320002.955155,1342.95
1575320002.967316,1343.79
1575320002.975828,1340.05
1575320002.9842281,1333.03
1575320002.996165,1327.86
1575320003.00447,1327.48
1575320003.012542,1332.99
1575320003.020621,1346.33
1575320003.033474,1363.13
1575320003.0412438,1389.88
1575320003.050196,1417.44
1575320003.061884,1435.67
1575320003.069812,1451.34
1575320003.0782359,1462.35
1575320003.0863402,1471.35
1575320003.099206,1485.07
1575320003.106894,1499.76
1575320003.115716,1510.82
1575320003.127193,1515.28
1575320003.1352608,1515.55
1575320003.143643,1512.12
1575320003.151726,1509.33
1575320003.164702,1508.04
1575320003.172349,1510.11
1575320003.181654,1514.17
1575320003.192962,1520.95
1575320003.20135,1527.03
1575320003.209362,1529.72
1575320003.217841,1530.41
1575320003.2295759,1529.57
1575320003.237691,1529.56
1575320003.246044,1532.36
1575320003.258235,1539.48
1575320003.2670898,1547.39
1575320003.2747252,1557.99
1575320003.283531,1566.13
1575320003.2980149,1569.24
1575320003.3032699,1568.26
1575320003.311751,1564.24
1575320003.323643,1561.69
1575320003.332451,1561.47
1575320003.3404732,1564.62
1575320003.349092,1568.99
1575320003.360773,1572.57
1575320003.368869,1576.16
1575320003.3773582,1577.33
1575320003.389442,1576.01
1575320003.39847,1571.85
1575320003.405827,1565.84
1575320003.4153228,1561.33
1575320003.4264581,1557.62
1575320003.435245,1555.49
1575320003.442858,1553.28
1575320003.454885,1548.0
1575320003.463135,1540.73
1575320003.47137,1534.95
1575320003.47962,1530.76
1575320003.491806,1530.91
1575320003.5005372,1532.62
1575320003.508239,1534.98
1575320003.52031,1536.42
1575320003.5287712,1536.29
1575320003.5367382,1533.53
1575320003.545341,1527.84
1575320003.557399,1522.41
1575320003.566071,1516.63
1575320003.573985,1513.65
1575320003.586027,1513.05
1575320003.594305,1512.77
1575320003.602335,1511.12
1575320003.610699,1506.51
1575320003.622837,1500.43
1575320003.632211,1492.05
1575320003.63923,1487.98
1575320003.651493,1490.7
1575320003.6597261,1498.89
1575320003.66884,1507.03
1575320003.6763678,1510.71
1575320003.688301,1509.65
1575320003.696625,1503.56
1575320003.70489,1497.43
1575320003.71749,1491.41
1575320003.725299,1489.73
1575320003.733952,1491.97
1575320003.741677,1497.31
1575320003.753782,1501.23
1575320003.762231,1501.3
1575320003.770198,1497.24
1575320003.783075,1490.63
1575320003.7909079,1485.41
1575320003.799593,1480.26
1575320003.8073852,1477.19
1575320003.819346,1475.83
1575320003.827724,1475.91
1575320003.835851,1476.25
1575320003.8489668,1475.81
1575320003.856406,1474.47
1575320003.865899,1472.13
1575320003.872822,1471.39
1575320003.884864,1473.19
1575320003.893365,1477.72
1575320003.901336,1482.39
1575320003.913783,1485.09
1575320003.9217222,1487.41
1575320003.9311738,1490.1
1575320003.9383821,1492.94
1575320003.950794,1497.49
1575320003.95887,1501.81
1575320003.967286,1504.44
1575320003.97933,1507.43
1575320003.987468,1509.75
1575320003.995734,1510.08
1575320004.00371,1507.57
1575320004.016861,1502.56
1575320004.0243342,1498.11
1575320004.033151,1494.37
1575320004.044843,1494.47
1575320004.052853,1497.86
1575320004.0611808,1500.63
1575320004.06924,1501.38
1575320004.08267,1498.5
1575320004.089858,1495.05
1575320004.0987241,1492.27
1575320004.1103392,1492.88
1575320004.11842,1495.15
1575320004.1267781,1498.94
1575320004.134753,1503.73
1575320004.14819,1508.54
1575320004.1552289,1514.55
1575320004.164685,1518.39
1575320004.17587,1519.64
1575320004.18386,1520.54
1575320004.19231,1522.84
1575320004.201226,1526.08
1575320004.212715,1530.44
1575320004.221049,1532.34
1575320004.229177,1531.09
1575320004.2413619,1527.29
1575320004.250583,1523.13
1575320004.257757,1520.59
1575320004.266558,1518.57
1575320004.278483,1517.34
1575320004.28639,1515.33
1575320004.294862,1512.3
1575320004.306682,1507.63
1575320004.3156521,1503.64
1575320004.3234382,1501.99
1575320004.332169,1501.9
1575320004.343958,1503.56
1575320004.3518121,1506.03
1575320004.360492,1509.16
1575320004.37253,1511.29
1575320004.3812711,1512.81
1575320004.3886862,1514.58
1575320004.398614,1515.18
1575320004.409455,1514.05
1575320004.418078,1511.0
1575320004.4257479,1507.45
1575320004.438122,1505.06
1575320004.446246,1504.3
1575320004.454238,1506.24
1575320004.4627929,1508.16
1575320004.47471,1509.08
1575320004.4833531,1508.33
1575320004.4913568,1507.85
1575320004.50337,1508.57
1575320004.511948,1510.63
1575320004.519833,1513.03
1575320004.5281138,1514.31
1575320004.540541,1515.3
1575320004.549335,1516.82
1575320004.556812,1518.65
1575320004.568948,1521.39
1575320004.577512,1523.41
1575320004.585341,1524.19
1575320004.593947,1524.53
1575320004.605945,1525.12
1575320004.615275,1526.58
1575320004.622208,1528.99
1575320004.634675,1530.31
1575320004.642755,1530.13
1575320004.65111,1529.15
1575320004.659154,1528.38
1575320004.6713731,1528.1
1575320004.679632,1527.59
1575320004.6878998,1525.33
1575320004.70089,1522.44
1575320004.708339,1518.31
1575320004.716767,1513.59
1575320004.724732,1508.94
1575320004.737061,1501.75
1575320004.745405,1497.2
1575320004.753379,1501.43
1575320004.766432,1513.8
1575320004.773899,1541.7
1575320004.78268,1581.61
1575320004.7903879,1619.82
1575320004.8024,1671.96
1575320004.810886,1726.61
1575320004.8189812,1770.35
1575320004.832116,1822.0
1575320004.8394592,1868.02
1575320004.848331,1899.15
1575320004.8558369,1930.41
1575320004.8679209,1955.01
1575320004.8764281,1970.71
1575320004.884442,1985.01
1575320004.899741,1990.88
1575320004.9049118,1988.41
1575320004.913179,1979.55
1575320004.921401,1968.54
1575320004.934079,1958.83
1575320004.9418828,1945.21
1575320004.950476,1928.99
1575320004.962471,1912.4
1575320004.970436,1884.42
1575320004.97887,1847.01
1575320004.986872,1801.66
1575320004.999937,1761.94
1575320005.007374,1710.41
1575320005.016319,1660.78
1575320005.027786,1627.36
1575320005.035876,1596.99
1575320005.044258,1576.77
1575320005.052276,1561.49
1575320005.065366,1535.29
1575320005.072982,1501.56
1575320005.081716,1475.25
1575320005.0935411,1451.23
1575320005.101738,1439.44
1575320005.110069,1436.33
1575320005.117883,1434.57
1575320005.131728,1430.8
1575320005.138434,1426.7
1575320005.14656,1423.69
1575320005.158824,1425.2
1575320005.167625,1427.3
1575320005.1752908,1424.99
1575320005.183639,1413.08
1575320005.195859,1397.18
1575320005.2040021,1374.02
1575320005.212266,1354.3
1575320005.224351,1346.1
1575320005.233305,1349.39
1575320005.240895,1358.82
1575320005.2496798,1364.47
1575320005.2617579,1363.77
1575320005.269462,1356.82
1575320005.277653,1345.4
1575320005.290024,1336.45
1575320005.299017,1330.42
1575320005.306418,1332.47
1575320005.315212,1336.86
1575320005.3269188,1340.6
1575320005.334877,1341.51
1575320005.343356,1340.62
1575320005.3555079,1336.27
1575320005.363872,1326.66
1575320005.3717818,1316.8
1575320005.380116,1306.14
1575320005.392451,1299.82
1575320005.400917,1297.01
1575320005.408692,1291.66
1575320005.417396,1277.7
1575320005.429468,1257.06
1575320005.4374342,1220.0
1575320005.445651,1177.73
1575320005.4578261,1143.13
1575320005.466795,1128.06
1575320005.4745018,1124.75
1575320005.483453,1132.83
1575320005.4950552,1142.93
1575320005.5029702,1156.04
1575320005.5112882,1163.91
1575320005.523504,1163.16
1575320005.532554,1155.45
1575320005.5400221,1148.73
1575320005.548872,1151.11
1575320005.56049,1168.27
1575320005.568349,1197.96
1575320005.5768452,1224.08
1575320005.588995,1253.57
1575320005.5977442,1278.12
1575320005.605408,1294.51
1575320005.614527,1311.99
1575320005.625901,1329.09
1575320005.634586,1345.04
1575320005.642421,1370.41
1575320005.654331,1400.61
1575320005.6626408,1424.57
1575320005.670848,1447.04
1575320005.679161,1456.72
1575320005.691359,1454.65
1575320005.700139,1446.93
1575320005.707799,1433.63
1575320005.720145,1420.38
1575320005.728456,1412.72
1575320005.736486,1407.13
1575320005.74477,1403.19
1575320005.756789,1398.58
1575320005.765642,1388.51
1575320005.7734022,1375.4
1575320005.78537,1364.43
1575320005.793859,1349.64
1575320005.801847,1333.06
1575320005.810348,1320.95
1575320005.8225012,1312.45
1575320005.832099,1313.42
1575320005.8389068,1317.71
1575320005.851234,1318.92
1575320005.859508,1305.4
1575320005.868277,1282.49
1575320005.875844,1245.2
1575320005.888004,1207.06
1575320005.896941,1179.96
1575320005.904483,1152.43
1575320005.917137,1130.73
1575320005.924812,1112.74
1575320005.933635,1099.54
1575320005.941291,1083.78
1575320005.9534469,1072.46
1575320005.961859,1071.19
1575320005.9698508,1083.45
1575320005.982767,1112.07
1575320005.990444,1145.29
1575320005.9990761,1195.06
1575320006.006906,1248.16
1575320006.0189672,1289.92
1575320006.027658,1340.41
1575320006.035388,1388.35
1575320006.048646,1422.38
1575320006.055939,1455.6
1575320006.064948,1478.92
1575320006.0723672,1493.48
1575320006.084467,1509.03
1575320006.0929952,1522.03
1575320006.102335,1531.32
1575320006.113248,1543.14
1575320006.121544,1554.81
1575320006.131802,1561.85
1575320006.137874,1567.57
1575320006.150648,1573.95
1575320006.158313,1583.84
1575320006.167878,1593.92
1575320006.178943,1607.96
1575320006.186932,1623.3
1575320006.195329,1636.14
1575320006.2033029,1648.56
1575320006.216363,1652.52
1575320006.2240582,1649.87
1575320006.233093,1643.64
1575320006.2444139,1639.12
1575320006.2524889,1637.92
1575320006.2610402,1637.01
1575320006.268854,1632.59
1575320006.28196,1625.24
1575320006.2895381,1613.8
1575320006.2983701,1604.3
1575320006.310085,1600.11
1575320006.318264,1598.27
1575320006.3265028,1596.78
1575320006.335553,1593.34
1575320006.346694,1585.64
1575320006.355006,1577.43
1575320006.363173,1572.89
1575320006.3754408,1569.86
1575320006.384285,1566.99
1575320006.391758,1562.82
1575320006.40044,1558.89
1575320006.4124742,1553.69
1575320006.420487,1546.32
1575320006.4288661,1538.03
1575320006.440875,1527.75
1575320006.44985,1521.15
1575320006.457381,1519.32
1575320006.466142,1518.82
1575320006.4778,1516.96
1575320006.486015,1514.26
1575320006.4947178,1511.02
1575320006.506455,1509.07
1575320006.5159192,1507.78
1575320006.5229518,1504.87
1575320006.53273,1500.39
1575320006.543453,1497.57
1575320006.551429,1497.44
1575320006.5599182,1501.45
1575320006.5720608,1506.26
1575320006.5804858,1510.79
1575320006.588542,1511.87
1575320006.5966341,1510.48
1575320006.60899,1507.37
1575320006.6175869,1504.91
1575320006.625757,1504.53
1575320006.637579,1505.7
1575320006.6458619,1506.39
1575320006.6538382,1504.88
1575320006.6622689,1502.3
1575320006.674363,1498.53
1575320006.683373,1495.57
1575320006.690911,1494.42
1575320006.702976,1495.24
1575320006.7113512,1498.27
1575320006.719326,1501.98
1575320006.727778,1507.7
1575320006.73999,1512.6
1575320006.748665,1514.93
1575320006.756493,1519.18
1575320006.768457,1531.22
1575320006.7769668,1549.67
1575320006.784909,1581.22
1575320006.7934568,1613.64
1575320006.80559,1635.4
1575320006.8147142,1656.06
1575320006.82191,1669.7
1575320006.834496,1675.83
1575320006.842488,1678.89
1575320006.8514152,1679.42
1575320006.8589141,1678.9
1575320006.8711948,1678.22
1575320006.879516,1677.63
1575320006.887578,1678.38
1575320006.900243,1679.38
1575320006.9078772,1679.21
1575320006.9167612,1676.76
1575320006.9244428,1674.05
1575320006.936491,1671.2
1575320006.94489,1670.04
1575320006.9528902,1670.49
1575320006.965832,1673.38
1575320006.973629,1678.4
1575320006.982516,1683.26
1575320006.990033,1689.89
1575320007.001923,1695.81
1575320007.010539,1698.66
1575320007.018434,1699.34
1575320007.032187,1696.89
1575320007.039027,1692.66
1575320007.0484989,1684.21
1575320007.055418,1672.59
1575320007.068226,1662.53
1575320007.075906,1650.95
1575320007.0842948,1641.27
1575320007.096328,1633.58
1575320007.104355,1629.25
1575320007.112722,1627.63
1575320007.1210198,1629.65
1575320007.133533,1632.27
1575320007.141344,1635.11
1575320007.1506088,1637.37
1575320007.161911,1639.12
1575320007.1699169,1641.64
1575320007.1783638,1644.16
1575320007.186293,1645.26
1575320007.1994848,1644.23
1575320007.2071009,1641.63
1575320007.215797,1639.68
1575320007.227697,1638.19
1575320007.2355998,1636.37
1575320007.243982,1634.08
1575320007.251889,1630.33
1575320007.2644842,1625.47
1575320007.27233,1621.18
1575320007.281784,1615.08
1575320007.293212,1608.1
1575320007.301543,1602.33
1575320007.3094962,1596.71
1575320007.317745,1593.64
1575320007.329818,1591.88
1575320007.3378692,1590.87
1575320007.346206,1590.1
1575320007.358488,1590.18
1575320007.367223,1590.64
1575320007.374839,1590.65
1575320007.383703,1587.05
1575320007.3955572,1577.99
1575320007.403598,1555.91
1575320007.412012,1522.74
1575320007.423847,1491.17
1575320007.432862,1450.85
1575320007.4405088,1415.18
1575320007.449059,1392.16
1575320007.461128,1371.58
1575320007.4690402,1358.43
1575320007.477717,1351.0
1575320007.489422,1343.97
1575320007.4991949,1338.96
1575320007.505845,1336.53
1575320007.5149891,1334.64
1575320007.526546,1332.95
1575320007.534816,1331.45
1575320007.5430038,1328.91
1575320007.554999,1326.05
1575320007.5633762,1323.33
1575320007.571487,1321.23
1575320007.579773,1318.45
1575320007.591989,1318.43
1575320007.600663,1325.09
1575320007.608402,1345.61
1575320007.6206322,1377.51
1575320007.629219,1405.44
1575320007.637154,1436.16
1575320007.645175,1458.84
1575320007.6574342,1472.37
1575320007.6667058,1486.97
1575320007.67381,1499.66
1575320007.686017,1507.84
1575320007.69485,1515.6
1575320007.702511,1521.54
1575320007.710955,1526.27
1575320007.723048,1533.5
1575320007.732149,1543.0
1575320007.739448,1551.55
1575320007.751752,1561.6
1575320007.7600782,1570.6
1575320007.769113,1576.81
1575320007.776505,1582.69
1575320007.7885299,1586.21
1575320007.798669,1589.68
1575320007.8050199,1596.68
1575320007.8176708,1613.93
1575320007.8255801,1637.36
1575320007.8341691,1655.86
1575320007.841876,1673.51
1575320007.853947,1683.43
1575320007.862543,1686.85
1575320007.870476,1688.48
1575320007.883188,1689.38
1575320007.891121,1689.95
1575320007.899571,1690.03
1575320007.907546,1689.48
1575320007.919476,1688.77
1575320007.9278982,1687.3
1575320007.9359722,1685.22
1575320007.9488251,1683.13
1575320007.956583,1680.92
1575320007.965322,1679.42
1575320007.973071,1678.04
1575320007.985045,1674.5
1575320007.993474,1668.14
1575320008.0015,1661.96
1575320008.0139499,1654.53
1575320008.021947,1648.85
1575320008.0318122,1646.33
1575320008.0385349,1646.38
1575320008.050636,1646.34
1575320008.058961,1640.24
1575320008.0675719,1628.8
1575320008.0793972,1608.36
1575320008.08748,1585.45
1575320008.099477,1568.73
1575320008.103873,1552.11
1575320008.116742,1541.03
1575320008.124657,1536.34
1575320008.133555,1534.2
1575320008.1449862,1533.73
1575320008.152981,1532.8
1575320008.161313,1529.68
1575320008.169376,1525.72
1575320008.182753,1522.74
1575320008.189996,1520.75
1575320008.199008,1520.81
1575320008.210645,1521.93
1575320008.218487,1523.69
1575320008.2269802,1524.66
1575320008.2348921,1524.91
1575320008.247798,1525.39
1575320008.255393,1527.98
1575320008.2648058,1532.17
1575320008.276282,1535.85
1575320008.2846432,1541.35
1575320008.292502,1548.08
1575320008.301089,1554.78
1575320008.312963,1563.35
1575320008.321154,1568.07
1575320008.329511,1567.38
1575320008.3413289,1561.67
1575320008.35023,1554.32
1575320008.357993,1550.22
1575320008.3669682,1549.7
1575320008.378589,1553.84
1575320008.3865778,1558.78
1575320008.394906,1564.15
1575320008.4068632,1566.19
1575320008.415767,1565.53
1575320008.423563,1562.88
1575320008.432576,1559.23
1575320008.4441311,1556.41
1575320008.45208,1553.81
1575320008.460469,1551.71
1575320008.47246,1550.3
1575320008.4817421,1548.26
1575320008.489085,1545.56
1575320008.498585,1542.65
1575320008.509622,1540.44
1575320008.518197,1537.26
1575320008.52598,1534.37
1575320008.53816,1533.42
1575320008.546376,1534.72
1575320008.554403,1537.9
1575320008.562935,1539.86
1575320008.574927,1539.96
1575320008.583652,1538.21
1575320008.591449,1537.27
1575320008.603669,1537.52
1575320008.611958,1538.69
1575320008.6199832,1540.12
1575320008.628976,1542.78
1575320008.6405299,1546.46
1575320008.649703,1550.29
1575320008.656896,1555.05
1575320008.669023,1557.95
1575320008.677383,1557.04
1575320008.685594,1549.26
1575320008.694187,1534.08
1575320008.706109,1520.14
1575320008.715109,1504.94
1575320008.72252,1493.43
1575320008.735199,1484.27
1575320008.743063,1479.17
1575320008.7509718,1479.08
1575320008.75949,1490.9
1575320008.771637,1510.94
1575320008.779874,1548.97
1575320008.7879438,1597.67
1575320008.8006852,1640.78
1575320008.8085172,1697.5
1575320008.81739,1758.74
1575320008.82479,1812.49
1575320008.837255,1884.54
1575320008.845592,1958.27
1575320008.853645,2015.21
1575320008.86653,2080.22
1575320008.874062,2136.03
1575320008.882764,2172.68
1575320008.890625,2207.96
1575320008.902634,2234.26
1575320008.911097,2251.35
1575320008.918946,2270.12
1575320008.9318058,2288.25
1575320008.939612,2301.91
1575320008.948647,2315.93
1575320008.9560242,2320.69
1575320008.96806,2311.88
1575320008.976554,2296.66
1575320008.984777,2270.99
1575320008.996989,2240.07
1575320009.004964,2213.46
1575320009.0132961,2180.15
1575320009.021555,2145.95
1575320009.034197,2115.56
1575320009.042094,2071.49
1575320009.0508091,2019.87
1575320009.062644,1974.41
1575320009.070626,1915.7
1575320009.079059,1857.56
1575320009.087012,1814.57
1575320009.099672,1770.52
1575320009.1075299,1738.94
1575320009.1163468,1718.57
1575320009.1279418,1691.94
1575320009.136048,1660.41
1575320009.144598,1633.39
1575320009.152477,1600.45
1575320009.165332,1572.28
1575320009.1729002,1554.97
1575320009.183129,1539.15
1575320009.193564,1527.91
1575320009.201568,1518.36
1575320009.210036,1510.5
1575320009.2185879,1501.12
1575320009.230376,1495.12
1575320009.238504,1491.98
1575320009.2467752,1485.8
1575320009.25916,1476.5
1575320009.267808,1469.76
1575320009.275439,1465.69
1575320009.284273,1464.41
1575320009.299739,1462.86
1575320009.304081,1460.95
1575320009.312484,1461.54
1575320009.324539,1464.38
1575320009.333345,1469.12
1575320009.3411698,1472.84
1575320009.349741,1475.31
1575320009.361395,1478.47
1575320009.3694952,1480.13
1575320009.37802,1479.32
1575320009.39022,1477.66
1575320009.399025,1479.56
1575320009.406614,1483.96
1575320009.415373,1488.8
1575320009.427113,1487.77
1575320009.435029,1479.36
1575320009.443577,1470.05
1575320009.455691,1458.4
1575320009.464027,1445.56
1575320009.4719949,1432.03
1575320009.480458,1409.57
1575320009.492683,1382.71
1575320009.50119,1360.53
1575320009.508964,1334.49
1575320009.5212958,1310.99
1575320009.5295749,1294.58
1575320009.537596,1277.77
1575320009.5460658,1263.71
1575320009.558018,1252.46
1575320009.566944,1235.93
1575320009.574431,1214.16
1575320009.583256,1192.14
1575320009.595031,1158.64
1575320009.603151,1117.64
1575320009.611388,1080.99
1575320009.623583,1034.42
1575320009.632305,992.92
1575320009.639873,966.13
1575320009.648673,944.24
1575320009.6563041,924.75
1575320009.6644979,904.16
1575320009.6725981,874.52
1575320009.681653,848.01
1575320009.6889899,821.24
1575320009.697485,796.75
1575320009.705584,776.8
1575320009.713876,763.55
1575320009.721827,758.38
1575320009.730129,762.47
1575320009.7383811,772.19
1575320009.7464802,787.04
1575320009.7546508,807.58
1575320009.762967,834.14
1575320009.770981,872.59
1575320009.779385,902.67
1575320009.787544,927.86
1575320009.795866,947.86
1575320009.80372,965.21
1575320009.812267,981.62
1575320009.820223,996.25
1575320009.83298,1010.47
1575320009.840875,1020.22
1575320009.849708,1035.78
1575320009.861332,1060.66
1575320009.869437,1088.11
1575320009.8778508,1127.57
1575320009.885607,1167.34
1575320009.898135,1196.75
1575320009.906239,1226.5
1575320009.9150321,1243.52
1575320009.926924,1245.94
1575320009.934767,1236.03
1575320009.943247,1218.94
1575320009.951673,1205.81
1575320009.963679,1193.99
1575320009.971614,1188.29
1575320009.979965,1190.75
1575320009.992314,1201.29
1575320010.002671,1227.77
1575320010.0086908,1268.17
1575320010.017211,1307.65
1575320010.0293078,1359.49
1575320010.03728,1405.44
1575320010.0455968,1433.17
1575320010.057719,1457.04
1575320010.066625,1477.22
1575320010.074198,1499.25
1575320010.082964,1539.38
1575320010.0950022,1588.14
1575320010.103304,1624.79
1575320010.1112058,1659.86
1575320010.123233,1683.16
1575320010.132392,1696.31
1575320010.139777,1708.87
1575320010.148468,1717.55
1575320010.1601012,1720.84
1575320010.1685429,1720.32
1575320010.176539,1716.0
1575320010.1888168,1711.05
1575320010.197103,1704.18
1575320010.205363,1697.54
1575320010.213536,1691.3
1575320010.225864,1686.66
1575320010.234276,1680.93
1575320010.242136,1675.35
1575320010.254436,1671.78
1575320010.2628129,1668.61
1575320010.2713861,1665.31
1575320010.279055,1661.08
1575320010.291231,1654.56
1575320010.300104,1649.37
1575320010.3076851,1646.85
1575320010.319891,1643.83
1575320010.3281841,1639.24
1575320010.33633,1634.6
1575320010.344596,1628.5
1575320010.356931,1623.69
1575320010.3654232,1621.39
1575320010.373384,1619.03
1575320010.385414,1615.74
1575320010.393794,1611.8
1575320010.401716,1606.19
1575320010.410209,1602.51
1575320010.422322,1601.79
1575320010.431198,1601.83
1575320010.438625,1600.57
1575320010.4508421,1596.4
1575320010.459303,1591.97
1575320010.467788,1587.95
1575320010.475599,1588.15
1575320010.48779,1590.61
1575320010.498558,1593.59
1575320010.504169,1594.28
1575320010.5169768,1593.32
1575320010.5247989,1592.13
1575320010.533691,1592.64
1575320010.5412018,1594.55
1575320010.553343,1597.94
1575320010.5617359,1600.76
1575320010.5698218,1601.59
1575320010.582806,1600.59
1575320010.590441,1597.52
1575320010.599652,1595.34
1575320010.606826,1595.49
1575320010.618782,1598.19
1575320010.627676,1600.24
1575320010.635242,1600.57
1575320010.648046,1598.45
1575320010.655655,1595.77
1575320010.664025,1591.33
1575320010.672068,1584.35
1575320010.684692,1576.09
1575320010.69262,1570.49
1575320010.7015638,1566.85
1575320010.713152,1566.62
1575320010.721269,1567.12
1575320010.729616,1566.93
1575320010.737615,1564.3
1575320010.750484,1561.09
1575320010.7582679,1557.56
1575320010.767068,1555.84
1575320010.77875,1555.74
1575320010.786863,1556.72
1575320010.7951932,1558.72
1575320010.803274,1560.53
1575320010.816731,1563.28
1575320010.823819,1565.66
1575320010.8326771,1564.72
1575320010.844678,1553.78
1575320010.85235,1527.42
1575320010.860822,1498.03
1575320010.8686678,1458.93
1575320010.8812,1424.15
1575320010.8893518,1402.38
1575320010.898071,1382.95
1575320010.909956,1370.66
1575320010.918087,1363.35
1575320010.926356,1359.61
1575320010.9351091,1356.99
1575320010.946632,1356.08
1575320010.9547179,1356.33
1575320010.96309,1357.33
1575320010.9751942,1357.7
1575320010.983871,1356.32
1575320010.9918761,1352.96
1575320011.0009248,1350.29
1575320011.01234,1349.22
1575320011.0203679,1348.82
1575320011.028814,1350.13
1575320011.036771,1353.5
1575320011.049637,1360.89
1575320011.05736,1369.92
1575320011.0661068,1376.66
1575320011.0780082,1384.04
1575320011.0858948,1389.85
1575320011.09424,1395.29
1575320011.102188,1408.48
1575320011.115711,1433.4
1575320011.122797,1461.34
1575320011.1329012,1499.15
1575320011.143201,1530.37
1575320011.151343,1550.57
1575320011.159628,1561.02
1575320011.1684108,1571.96
1575320011.180053,1582.88
1575320011.188253,1590.54
1575320011.1966841,1598.12
1575320011.208734,1602.88
1575320011.217798,1604.71
1575320011.225197,1605.63
1575320011.234257,1606.17
1575320011.245543,1606.12
1575320011.2537138,1605.18
1575320011.262024,1604.61
1575320011.2743502,1604.73
1575320011.283202,1605.68
1575320011.2907789,1607.04
1575320011.300221,1607.6
1575320011.311324,1607.11
1575320011.319241,1604.89
1575320011.327818,1602.17
1575320011.339701,1598.16
1575320011.348762,1594.17
1575320011.356341,1591.65
1575320011.36691,1589.04
1575320011.376786,1585.56
1575320011.384844,1581.08
1575320011.393258,1578.59
1575320011.405419,1580.53
1575320011.413713,1588.28
1575320011.421851,1595.94
1575320011.4299572,1603.31
1575320011.442304,1606.29
1575320011.4511092,1606.23
1575320011.4588192,1605.5
1575320011.4710112,1605.8
1575320011.479371,1606.58
1575320011.487252,1607.68
1575320011.495706,1609.09
1575320011.5078871,1610.29
1575320011.516709,1610.87
1575320011.524359,1609.88
1575320011.536329,1608.54
1575320011.544783,1606.72
1575320011.552943,1604.76
1575320011.561358,1603.22
1575320011.573347,1601.7
1575320011.5825028,1600.32
1575320011.58994,1598.73
1575320011.602657,1595.93
1575320011.6102889,1593.09
1575320011.618237,1591.15
1575320011.626673,1590.75
1575320011.638923,1591.55
1575320011.647328,1591.83
1575320011.6552498,1590.62
1575320011.667974,1586.96
1575320011.6757061,1581.78
1575320011.6845691,1579.01
1575320011.692039,1580.98
1575320011.704293,1589.38
1575320011.712904,1597.67
1575320011.720832,1605.21
1575320011.733568,1606.55
1575320011.741279,1604.15
1575320011.750209,1599.71
1575320011.757879,1595.35
1575320011.770918,1592.17
1575320011.7780192,1588.39
1575320011.786245,1584.94
1575320011.7988029,1582.42
1575320011.806717,1578.68
1575320011.815018,1573.62
1575320011.823183,1569.02
1575320011.835616,1563.34
1575320011.8435981,1558.93
1575320011.8522859,1556.19
1575320011.864117,1555.14
1575320011.872177,1554.52
1575320011.880548,1553.68
1575320011.88874,1552.68
1575320011.901658,1551.01
1575320011.909142,1547.69
1575320011.917856,1544.13
1575320011.929545,1539.34
1575320011.938039,1534.0
1575320011.945966,1529.31
1575320011.9544818,1523.76
1575320011.967051,1520.55
1575320011.9746199,1520.13
1575320011.98371,1521.11
1575320011.9950879,1522.43
1575320012.0033438,1523.39
1575320012.011474,1524.81
1575320012.0196512,1527.44
1575320012.032397,1530.73
1575320012.0403671,1536.56
1575320012.048404,1542.81
1575320012.060647,1546.67
1575320012.069315,1548.93
1575320012.0770612,1548.05
1575320012.0856042,1544.49
1575320012.097954,1540.49
1575320012.105814,1535.93
1575320012.114053,1533.59
1575320012.126196,1533.8
1575320012.1346939,1535.85
1575320012.142852,1539.22
1575320012.151495,1542.3
1575320012.1629922,1546.65
1575320012.1713338,1552.11
1575320012.179565,1557.37
1575320012.191743,1563.65
1575320012.200785,1568.01
1575320012.208106,1570.01
1575320012.217217,1570.36
1575320012.228588,1567.14
1575320012.2370749,1562.24
1575320012.245236,1554.91
1575320012.257167,1547.92
1575320012.265656,1543.77
1575320012.273692,1541.45
1575320012.281876,1542.27
1575320012.294673,1544.41
1575320012.3028538,1547.1
1575320012.310504,1547.7
1575320012.322817,1545.58
1575320012.331163,1543.71
1575320012.3391612,1544.47
1575320012.347466,1549.28
1575320012.3595781,1554.75
1575320012.368032,1561.53
1575320012.376061,1566.26
1575320012.388327,1568.11
1575320012.3965209,1568.52
1575320012.404806,1567.69
1575320012.4129431,1566.03
1575320012.425121,1562.47
1575320012.434016,1558.48
1575320012.441581,1557.85
1575320012.453952,1563.93
1575320012.462191,1577.86
1575320012.470415,1593.51
1575320012.478459,1618.6
1575320012.49101,1651.25
1575320012.500576,1682.46
1575320012.5073779,1725.84
1575320012.5195708,1772.67
1575320012.527563,1810.97
1575320012.536046,1854.62
1575320012.543915,1886.28
1575320012.5563562,1903.48
1575320012.564647,1910.54
1575320012.57264,1915.99
1575320012.585345,1917.77
1575320012.5932758,1915.59
1575320012.6020029,1908.58
1575320012.609469,1898.37
1575320012.622057,1888.16
1575320012.630095,1874.62
1575320012.6385899,1863.83
1575320012.650911,1857.79
1575320012.6586728,1850.88
1575320012.668878,1842.24
1575320012.6750872,1834.78
1575320012.688106,1825.49
1575320012.6957178,1813.54
1575320012.703916,1800.49
1575320012.717249,1782.38
1575320012.724245,1767.66
1575320012.733451,1760.41
1575320012.740542,1754.33
1575320012.753176,1746.76
1575320012.761049,1739.18
1575320012.769569,1729.56
1575320012.781661,1719.54
1575320012.789835,1707.49
1575320012.800053,1697.1
1575320012.806292,1684.13
1575320012.8189921,1669.49
1575320012.8266711,1655.54
1575320012.835874,1638.17
1575320012.847106,1624.25
1575320012.855459,1614.84
1575320012.863564,1602.47
1575320012.871926,1589.79
1575320012.884558,1580.63
1575320012.892194,1569.62
1575320012.900492,1556.37
1575320012.912925,1542.59
1575320012.922289,1523.39
1575320012.9290829,1506.61
1575320012.937307,1496.48
1575320012.9504251,1487.8
1575320012.957791,1483.98
1575320012.9668171,1484.95
1575320012.978255,1488.2
1575320012.986608,1487.5
1575320012.994603,1481.44
1575320013.003287,1469.43
1575320013.0155241,1459.08
1575320013.023354,1454.46
1575320013.031551,1454.02
1575320013.0436742,1453.99
1575320013.052404,1451.29
1575320013.060103,1446.28
1575320013.069101,1436.55
1575320013.080627,1423.39
1575320013.0887349,1412.22
1575320013.097064,1399.93
1575320013.1092322,1390.39
1575320013.117866,1383.61
1575320013.125612,1375.49
1575320013.134562,1369.49
1575320013.146518,1368.67
1575320013.1544719,1372.01
1575320013.162685,1374.62
1575320013.1747289,1372.44
1575320013.183128,1364.59
1575320013.1912389,1355.54
1575320013.200635,1349.91
1575320013.211524,1347.3
1575320013.220046,1351.78
1575320013.227969,1360.61
1575320013.240478,1375.09
1575320013.2485251,1388.33
1575320013.256895,1396.18
1575320013.26526,1398.62
1575320013.2771788,1399.33
1575320013.285299,1398.98
1575320013.293826,1397.35
1575320013.30598,1392.65
1575320013.314552,1384.82
1575320013.322412,1376.55
1575320013.330667,1365.1
1575320013.342977,1355.73
1575320013.352623,1350.47
1575320013.359308,1344.94
1575320013.371569,1338.09
1575320013.3799071,1330.83
1575320013.388507,1320.36
1575320013.39603,1310.6
1575320013.408283,1304.82
1575320013.417255,1301.24
1575320013.424608,1302.92
1575320013.437033,1308.0
1575320013.445229,1317.43
1575320013.4533818,1328.65
1575320013.4614651,1339.33
1575320013.4740942,1355.97
1575320013.4820611,1375.42
1575320013.490227,1394.13
1575320013.502692,1407.48
1575320013.510704,1423.58
1575320013.519124,1439.5
1575320013.527116,1449.94
1575320013.5392792,1458.48
1575320013.547694,1463.47
1575320013.555856,1466.22
1575320013.5685198,1467.95
1575320013.576146,1467.25
1575320013.5848079,1465.55
1575320013.5926468,1462.38
1575320013.6049159,1457.06
1575320013.613086,1451.06
1575320013.621399,1441.98
1575320013.63394,1430.45
1575320013.64182,1419.93
1575320013.650623,1406.2
1575320013.65815,1393.17
1575320013.670398,1384.42
1575320013.678802,1375.98
1575320013.6874208,1369.72
1575320013.7010298,1365.52
1575320013.707218,1360.06
1575320013.716338,1355.11
1575320013.723837,1356.48
1575320013.7362401,1365.88
1575320013.7441568,1386.87
1575320013.7525692,1409.52
1575320013.76471,1423.2
1575320013.7730172,1433.74
1575320013.781116,1442.87
1575320013.78929,1452.53
1575320013.80146,1466.0
1575320013.810024,1478.08
1575320013.8187861,1486.6
1575320013.8303292,1497.06
1575320013.838321,1507.81
1575320013.846595,1515.7
1575320013.8549209,1523.97
1575320013.8676639,1531.52
1575320013.8751051,1538.47
1575320013.884088,1549.0
1575320013.897005,1559.69
1575320013.9039512,1566.51
1575320013.912201,1573.26
1575320013.920264,1581.13
1575320013.9334521,1588.24
1575320013.940834,1594.15
1575320013.95017,1594.29
1575320013.961246,1592.12
1575320013.9697092,1591.48
1575320013.977536,1591.35
1575320013.985882,1588.23
1575320013.99808,1581.19
1575320014.0065138,1565.93
1575320014.01454,1546.98
1575320014.026709,1532.89
1575320014.0353549,1519.36
1575320014.0432372,1510.83
1575320014.052005,1505.73
1575320014.06364,1498.94
1575320014.0719502,1491.54
1575320014.080239,1487.2
1575320014.0923,1485.67
1575320014.1009789,1487.04
1575320014.108633,1487.86
1575320014.1176362,1485.77
1575320014.129191,1481.4
1575320014.137407,1478.61
1575320014.1460228,1476.78
1575320014.157943,1475.64
1575320014.167438,1475.06
1575320014.1742961,1475.38
1575320014.182525,1478.16
1575320014.194864,1482.53
1575320014.203264,1485.56
1575320014.211071,1488.05
1575320014.223365,1488.93
1575320014.2326221,1489.35
1575320014.2397618,1490.85
1575320014.2481542,1494.23
1575320014.260156,1497.83
1575320014.268768,1502.28
1575320014.27689,1506.05
1575320014.2888188,1508.96
1575320014.297496,1513.12
1575320014.305244,1518.09
1575320014.3137999,1521.67
1575320014.325727,1524.87
1575320014.334503,1526.12
1575320014.3421361,1526.37
1575320014.354476,1526.96
1575320014.362797,1527.96
1575320014.3708632,1528.48
1575320014.3791602,1528.05
1575320014.3912342,1526.61
1575320014.400126,1525.03
1575320014.4077592,1523.1
1575320014.420455,1520.67
1575320014.428194,1517.47
1575320014.436494,1515.43
1575320014.444492,1514.85
1575320014.456938,1517.19
1575320014.465125,1520.7
1575320014.4734359,1525.72
1575320014.486028,1530.38
1575320014.493762,1533.36
1575320014.502131,1536.94
1575320014.510103,1541.3
1575320014.5223758,1544.86
1575320014.5345652,1547.64
1575320014.538837,1547.16
1575320014.552306,1544.54
1575320014.559229,1539.21
1575320014.5681942,1533.68
1575320014.5756109,1532.66
1575320014.588032,1539.89
1575320014.596137,1555.26
1575320014.604546,1570.35
1575320014.6178298,1588.89
1575320014.6247501,1603.95
1575320014.633887,1611.83
1575320014.6413188,1616.1
1575320014.6539168,1616.64
1575320014.661613,1616.78
1575320014.6705122,1618.53
1575320014.6836,1624.21
1575320014.6902988,1632.79
1575320014.700202,1639.05
1575320014.7068899,1643.62
1575320014.719373,1644.86
1575320014.7271638,1644.38
1575320014.735818,1642.93
1575320014.747821,1641.68
1575320014.7558248,1640.58
1575320014.764269,1637.52
1575320014.772265,1631.24
1575320014.784765,1623.89
1575320014.79267,1612.56
1575320014.801447,1600.59
1575320014.813151,1592.0
1575320014.821474,1583.17
1575320014.829622,1576.42
1575320014.838027,1573.55
1575320014.850583,1572.96
1575320014.8583,1576.28
1575320014.867084,1581.06
1575320014.8789902,1587.83
1575320014.887157,1593.57
1575320014.895561,1596.92
1575320014.903328,1596.38
1575320014.9164429,1588.05
1575320014.923786,1568.67
1575320014.9325492,1547.25
1575320014.9446678,1519.68
1575320014.95252,1497.12
1575320014.961152,1483.66
1575320014.968844,1470.93
1575320014.982132,1460.99
1575320014.9895082,1454.2
1575320014.998662,1446.77
1575320015.010129,1441.79
1575320015.0185149,1439.62
1575320015.026471,1438.89
1575320015.034972,1439.76
1575320015.0468218,1440.7
1575320015.054925,1442.0
1575320015.063284,1443.68
1575320015.0754051,1444.85
1575320015.08429,1445.36
1575320015.091912,1444.68
1575320015.100678,1443.19
1575320015.1122801,1440.9
1575320015.120554,1439.32
1575320015.129007,1438.61
1575320015.141073,1438.33
1575320015.1498098,1437.65
1575320015.157513,1435.66
1575320015.1665,1433.82
1575320015.177902,1433.44
1575320015.1860108,1435.37
1575320015.194311,1437.75
1575320015.206626,1443.51
1575320015.215435,1455.5
1575320015.222983,1469.35
1575320015.231361,1487.12
1575320015.243534,1500.9
1575320015.251505,1508.69
1575320015.259941,1516.28
1575320015.2684622,1523.65
1575320015.280465,1529.55
1575320015.288363,1536.33
1575320015.2991092,1541.87
1575320015.309055,1545.22
1575320015.317646,1547.63
1575320015.325353,1548.41
1575320015.334218,1549.49
1575320015.346077,1553.03
1575320015.354032,1560.01
1575320015.36223,1567.65
1575320015.3742878,1572.08
1575320015.3832052,1574.42
1575320015.3910809,1573.44
1575320015.400335,1571.36
1575320015.411525,1568.14
1575320015.419392,1563.81
1575320015.428083,1558.84
1575320015.439915,1550.86
1575320015.449263,1541.82
1575320015.456466,1534.67
1575320015.465488,1527.42
1575320015.476786,1524.27
1575320015.484961,1525.19
1575320015.493463,1529.06
1575320015.5055869,1534.37
1575320015.513807,1539.14
1575320015.5219898,1545.26
1575320015.530231,1549.58
1575320015.542382,1550.45
1575320015.551261,1548.69
1575320015.558743,1545.65
1575320015.571147,1543.14
1575320015.579306,1540.12
1575320015.587476,1536.86
1575320015.595665,1533.0
1575320015.607828,1528.73
1575320015.617137,1522.33
1575320015.624297,1516.32
1575320015.63647,1513.85
1575320015.645476,1515.28
1575320015.653227,1521.07
1575320015.661352,1526.85
1575320015.6735418,1532.77
1575320015.6817338,1535.74
1575320015.6899579,1536.27
1575320015.702683,1535.93
1575320015.71028,1536.16
1575320015.7187772,1537.61
1575320015.7266471,1540.21
1575320015.739012,1541.87
1575320015.747384,1541.87
1575320015.75529,1542.31
1575320015.767833,1545.48
1575320015.776021,1549.04
1575320015.78486,1551.84
1575320015.792087,1550.39
1575320015.8044841,1546.56
1575320015.812696,1541.17
1575320015.8209229,1539.02
1575320015.834443,1541.71
1575320015.841302,1547.68
1575320015.850961,1558.36
1575320015.85785,1568.85
1575320015.8703492,1574.58
1575320015.878137,1577.39
1575320015.8868601,1576.36
1575320015.900985,1573.09
1575320015.9068348,1566.27
1575320015.915096,1558.03
1575320015.923363,1553.35
1575320015.935703,1552.92
1575320015.943726,1557.69
1575320015.952396,1562.2
1575320015.964225,1564.57
1575320015.9724102,1562.32
1575320015.9808419,1558.76
1575320015.988814,1554.64
1575320016.001562,1552.77
1575320016.009585,1552.5
1575320016.017977,1552.23
1575320016.029815,1551.39
1575320016.0379012,1550.46
1575320016.0462239,1548.35
1575320016.054336,1545.72
1575320016.067436,1542.44
1575320016.074813,1540.24
1575320016.084023,1540.4
1575320016.095259,1543.92
1575320016.103749,1547.12
1575320016.111604,1549.03
1575320016.120234,1547.25
1575320016.133315,1544.04
1575320016.1406279,1539.66
1575320016.149271,1536.49
1575320016.160774,1535.37
1575320016.169164,1536.26
1575320016.177279,1541.19
1575320016.186315,1549.06
1575320016.1977038,1562.72
1575320016.2058291,1576.79
1575320016.21424,1585.44
1575320016.22633,1591.56
1575320016.2349398,1593.69
1575320016.242744,1594.2
1575320016.251584,1593.64
1575320016.263245,1590.42
1575320016.271573,1585.19
1575320016.2796469,1575.35
1575320016.291808,1563.29
1575320016.3017092,1552.68
1575320016.308246,1547.92
1575320016.317348,1546.81
1575320016.328685,1547.28
1575320016.336962,1546.45
1575320016.345173,1545.71
1575320016.357405,1552.73
1575320016.365706,1569.14
1575320016.373896,1606.47
1575320016.382804,1661.53
1575320016.3943129,1715.74
1575320016.402785,1791.13
1575320016.410656,1867.32
1575320016.4229991,1923.16
1575320016.4313972,1982.62
1575320016.43952,2031.94
1575320016.4476821,2066.36
1575320016.459714,2105.55
1575320016.468377,2140.37
1575320016.476213,2162.83
1575320016.4885929,2181.97
1575320016.500797,2190.81
1575320016.504875,2192.94
1575320016.5131142,2194.72
1575320016.525252,2198.0
1575320016.534364,2201.34
1575320016.5417202,2201.6
1575320016.5541608,2195.51
1575320016.562264,2181.41
1575320016.570403,2166.3
1575320016.5785952,2147.54
1575320016.590879,2131.29
1575320016.59919,2117.98
1575320016.607285,2097.14
1575320016.6199281,2071.04
1575320016.627691,2048.94
1575320016.636003,2022.74
1575320016.644864,1998.01
1575320016.656509,1977.55
1575320016.664727,1949.69
1575320016.672831,1918.02
1575320016.686411,1889.51
1575320016.693248,1849.78
1575320016.702084,1807.35
1575320016.709846,1773.08
1575320016.722027,1731.33
1575320016.730289,1689.7
1575320016.738425,1655.17
1575320016.75128,1610.86
1575320016.758849,1568.5
1575320016.767686,1529.78
1575320016.775365,1500.42
1575320016.7876558,1464.68
1575320016.7957,1430.02
1575320016.804377,1402.84
1575320016.817324,1368.07
1575320016.824424,1334.08
1575320016.833795,1312.0
1575320016.840846,1293.79
1575320016.853298,1282.82
1575320016.8611479,1274.07
1575320016.869787,1256.93
1575320016.881709,1230.2
1575320016.8899531,1202.47
1575320016.8997371,1164.22
1575320016.9062898,1128.66
1575320016.918813,1105.79
1575320016.9267552,1086.02
1575320016.935484,1078.07
1575320016.947364,1080.08
1575320016.955528,1087.94
1575320016.9639292,1094.17
1575320016.971786,1095.03
1575320016.984416,1092.58
1575320016.992418,1093.34
1575320017.001583,1102.8
1575320017.01284,1114.61
1575320017.0210261,1127.36
1575320017.029239,1132.04
1575320017.037498,1131.14
1575320017.0507,1128.47
1575320017.0578282,1126.97
1575320017.066844,1126.1
1575320017.078523,1123.15
1575320017.086653,1117.77
1575320017.0956311,1113.09
1575320017.103062,1108.71
1575320017.115996,1105.12
1575320017.12356,1102.03
1575320017.1339688,1097.63
1575320017.144577,1091.01
1575320017.155071,1083.89
1575320017.1605902,1075.97
1575320017.168779,1073.68
1575320017.180751,1075.65
1575320017.189087,1078.27
1575320017.197357,1075.54
1575320017.209525,1068.82
1575320017.218078,1059.03
1575320017.2257779,1052.93
1575320017.234731,1051.84
1575320017.2463071,1052.52
1575320017.2546182,1053.57
1575320017.26272,1056.87
1575320017.2750468,1064.28
1575320017.284086,1080.92
1575320017.291321,1101.76
1575320017.300402,1119.2
1575320017.3117728,1140.55
1575320017.32029,1160.23
1575320017.328233,1173.65
1575320017.340482,1188.06
1575320017.350348,1200.87
1575320017.356957,1209.17
1575320017.365712,1214.82
1575320017.377271,1214.4
1575320017.385779,1212.85
1575320017.3940969,1215.25
1575320017.4060538,1224.2
1575320017.414266,1233.36
1575320017.422608,1244.47
1575320017.430774,1256.67
1575320017.442861,1267.75
1575320017.451452,1280.03
1575320017.4593291,1285.64
1575320017.4716601,1282.67
1575320017.479745,1277.38
1575320017.488078,1275.69
1575320017.496821,1286.12
1575320017.5083818,1300.87
1575320017.517185,1319.17
1575320017.5248818,1332.72
1575320017.537208,1341.87
1575320017.5452192,1353.82
1575320017.5537322,1364.54
1575320017.561764,1369.29
1575320017.5740101,1369.66
1575320017.582251,1369.57
1575320017.590392,1373.38
1575320017.6027799,1381.92
1575320017.610788,1389.41
1575320017.619371,1392.44
1575320017.627211,1393.09
1575320017.639715,1392.46
1575320017.651777,1391.33
1575320017.656238,1388.73
1575320017.6688561,1387.62
1575320017.676374,1390.97
1575320017.685455,1400.56
1575320017.692966,1410.78
1575320017.7050161,1416.35
1575320017.713334,1418.33
1575320017.721629,1423.34
1575320017.7343712,1434.97
1575320017.741871,1446.75
1575320017.750855,1459.74
1575320017.758291,1466.24
1575320017.770765,1466.31
1575320017.7788448,1462.07
1575320017.7870588,1457.83
1575320017.799257,1455.77
1575320017.807473,1452.81
1575320017.817208,1446.99
1575320017.823987,1439.3
1575320017.836266,1427.39
1575320017.8441842,1419.26
1575320017.852709,1421.02
1575320017.864917,1434.47
1575320017.872939,1454.21
1575320017.8813262,1468.22
1575320017.889363,1479.54
1575320017.902158,1486.09
1575320017.9098618,1489.79
1575320017.918775,1491.9
1575320017.930378,1488.51
1575320017.9386828,1479.63
1575320017.946769,1472.0
1575320017.954876,1467.27
1575320017.967884,1471.93
1575320017.975331,1481.29
1575320017.984323,1494.16
1575320017.995924,1501.49
1575320018.004044,1501.83
1575320018.0122318,1499.37
1575320018.020639,1500.75
1575320018.032773,1507.55
1575320018.0409,1522.39
1575320018.050327,1538.37
1575320018.061308,1548.21
1575320018.069979,1557.12
1575320018.0777202,1564.18
1575320018.086304,1568.1
1575320018.09846,1570.88
1575320018.1064909,1574.24
1575320018.11493,1578.52
1575320018.1269052,1582.09
1575320018.135968,1578.56
1575320018.143222,1569.39
1575320018.151989,1553.19
1575320018.163904,1538.8
1575320018.171989,1531.13
1575320018.1802728,1529.24
1575320018.192426,1527.4
1575320018.201335,1519.21
1575320018.2089002,1505.56
1575320018.217878,1479.27
1575320018.229331,1446.71
1575320018.2376451,1421.23
1575320018.245761,1396.27
1575320018.2579541,1380.43
1575320018.267665,1371.21
1575320018.2742999,1360.27
1575320018.2842,1348.22
1575320018.29474,1338.11
1575320018.3033202,1327.49
1575320018.3112068,1321.47
1575320018.3236082,1318.92
1575320018.333465,1316.62
1575320018.340153,1316.18
1575320018.3484192,1319.32
1575320018.360384,1329.88
1575320018.369084,1349.16
1575320018.376833,1369.68
1575320018.38927,1397.8
1575320018.3973382,1423.51
1575320018.405525,1444.69
1575320018.413856,1460.45
1575320018.425879,1482.36
1575320018.434976,1507.38
1575320018.4423769,1527.03
1575320018.4547021,1547.92
1575320018.4628658,1565.98
1575320018.471242,1582.05
1575320018.4792361,1608.68
1575320018.491402,1641.94
1575320018.501041,1669.52
1575320018.507967,1699.48
1575320018.520294,1722.49
1575320018.528367,1737.12
1575320018.536701,1751.76
1575320018.5448,1760.99
1575320018.5569658,1764.1
1575320018.565425,1766.02
1575320018.573568,1767.18
1575320018.585855,1765.46
1575320018.594195,1758.1
1575320018.603137,1748.25
1575320018.6103182,1741.88
1575320018.622587,1736.25
1575320018.630802,1730.94
1575320018.63902,1724.26
1575320018.653378,1718.15
1575320018.659368,1710.63
1575320018.667994,1704.13
1575320018.676127,1698.12
1575320018.688129,1685.27
1575320018.69945,1663.5
1575320018.704829,1642.33
1575320018.718067,1618.74
1575320018.724896,1604.7
1575320018.7337081,1601.46
1575320018.741471,1603.92
1575320018.7536309,1608.13
1575320018.7619572,1610.65
1575320018.769995,1613.8
1575320018.7824159,1619.19
1575320018.790724,1625.74
1575320018.799507,1635.39
1575320018.807178,1643.07
1575320018.81918,1646.67
1575320018.827727,1647.76
1575320018.835914,1646.38
1575320018.848026,1644.25
1575320018.8561668,1641.5
1575320018.8644302,1639.0
1575320018.872579,1637.76
1575320018.885042,1638.15
1575320018.893182,1639.38
1575320018.902369,1639.3
1575320018.913574,1637.27
1575320018.92163,1632.18
1575320018.929974,1625.01
1575320018.9379609,1619.54
1575320018.951,1617.16
1575320018.958383,1622.48
1575320018.9671118,1631.15
1575320018.9791071,1642.6
1575320018.987208,1650.67
1575320018.9954271,1653.92
1575320019.003474,1655.35
1575320019.016374,1655.91
1575320019.024255,1655.82
1575320019.033331,1655.08
1575320019.0449338,1653.96
1575320019.0527842,1653.58
1575320019.061127,1654.04
1575320019.069202,1654.64
1575320019.082732,1653.86
1575320019.08957,1650.76
1575320019.100138,1646.77
1575320019.1102002,1643.53
1575320019.11814,1641.97
1575320019.126632,1639.96
1575320019.135103,1636.41
1575320019.148554,1632.71
1575320019.1552389,1628.55
1575320019.163292,1626.39
1575320019.175682,1626.13
1575320019.184774,1626.7
1575320019.1918552,1626.34
1575320019.201461,1624.82
1575320019.2125142,1621.45
1575320019.220837,1617.11
1575320019.228891,1613.84
1575320019.2409978,1611.18
1575320019.2499468,1610.32
1575320019.257737,1609.87
1575320019.266869,1608.59
1575320019.278249,1606.12
1575320019.2860448,1604.56
1575320019.29472,1603.94
1575320019.306574,1605.48
1575320019.315808,1607.34
1575320019.3237062,1609.05
1575320019.331848,1609.43
1575320019.3438132,1608.54
1575320019.352366,1607.46
1575320019.360081,1605.86
1575320019.372192,1603.48
1575320019.3804958,1600.0
1575320019.388593,1593.57
1575320019.397084,1585.81
1575320019.4091258,1580.28
1575320019.417585,1575.55
1575320019.4254742,1572.46
1575320019.4375942,1571.49
1575320019.4461079,1572.17
1575320019.454158,1573.6
1575320019.4624488,1574.5
1575320019.474476,1575.02
1575320019.483475,1574.71
1575320019.491043,1573.59
1575320019.500012,1571.44
1575320019.511785,1569.37
1575320019.519711,1569.22
1575320019.5282402,1570.87
1575320019.5400991,1573.62
1575320019.549056,1575.66
1575320019.5564458,1576.96
1575320019.565425,1577.05
1575320019.577153,1577.04
1575320019.5851378,1577.49
1575320019.593585,1578.24
1575320019.60572,1578.52
1575320019.61395,1577.49
1575320019.6221702,1574.56
1575320019.630419,1570.55
1575320019.642768,1566.62
1575320019.651407,1560.54
1575320019.659159,1552.96
1575320019.6712,1546.39
1575320019.679672,1538.53
1575320019.6876311,1532.86
1575320019.695903,1530.47
1575320019.708025,1529.52
1575320019.7167292,1529.54
1575320019.724442,1529.26
1575320019.7366889,1528.58
1575320019.7453032,1527.79
1575320019.75363,1527.48
1575320019.761659,1528.18
1575320019.773844,1532.5
1575320019.782756,1542.31
1575320019.790163,1564.94
1575320019.802697,1595.29
1575320019.810772,1622.92
1575320019.819048,1637.13
1575320019.8269749,1643.49
1575320019.839265,1641.84
1575320019.847552,1639.54
1575320019.85554,1638.68
1575320019.868482,1640.9
1575320019.8761039,1644.09
1575320019.8843808,1647.89
1575320019.8924959,1650.44
1575320019.904587,1651.99
1575320019.9130812,1653.4
1575320019.921008,1654.85
1575320019.934143,1655.4
1575320019.941718,1655.13
1575320019.950457,1652.9
1575320019.957931,1649.32
1575320019.970185,1643.58
1575320019.978716,1637.98
1575320019.986659,1634.07
1575320019.9994051,1629.84
1575320020.007253,1625.8
1575320020.0160909,1622.68
1575320020.023638,1618.8
1575320020.035712,1615.39
1575320020.0441978,1613.08
1575320020.052643,1611.92
1575320020.064639,1610.86
1575320020.072633,1610.27
1575320020.082152,1609.9
1575320020.089002,1609.98
1575320020.1015549,1611.26
1575320020.109816,1611.18
1575320020.118224,1603.63
1575320020.1300879,1582.49
1575320020.1380868,1556.31
1575320020.146493,1518.41
1575320020.154998,1482.25
1575320020.167315,1457.29
1575320020.175189,1432.65
1575320020.184417,1415.55
1575320020.195644,1406.92
1575320020.203607,1401.74
1575320020.211984,1401.02
1575320020.2200692,1402.01
1575320020.233092,1404.01
1575320020.240812,1407.18
1575320020.249665,1411.04
1575320020.261441,1416.67
1575320020.269769,1421.48
1575320020.277614,1424.71
1575320020.285548,1426.69
1575320020.2988942,1429.42
1575320020.3061929,1433.17
1575320020.314943,1436.25
1575320020.326796,1439.09
1575320020.335237,1439.86
1575320020.343235,1438.25
1575320020.3517408,1434.32
1575320020.363549,1430.25
1575320020.371584,1428.56
1575320020.380082,1429.15
1575320020.392097,1431.86
1575320020.400979,1434.96
1575320020.408434,1438.97
1575320020.417279,1442.52
1575320020.429088,1445.75
1575320020.437388,1452.03
1575320020.4455109,1460.94
1575320020.4575639,1469.07
1575320020.466708,1480.04
1575320020.4741278,1490.72
1575320020.4829319,1497.24
1575320020.494839,1500.9
1575320020.503894,1500.64
1575320020.511075,1499.41
1575320020.523308,1499.47
1575320020.531617,1501.32
1575320020.539532,1503.47
1575320020.547858,1504.06
1575320020.560194,1502.63
1575320020.568631,1499.85
1575320020.5766752,1497.16
1575320020.588728,1493.21
1575320020.597038,1488.97
1575320020.605136,1485.73
1575320020.613635,1482.82
1575320020.6256618,1483.7
1575320020.634333,1487.68
1575320020.64206,1494.91
1575320020.654208,1501.8
1575320020.6630242,1504.98
1575320020.670772,1506.23
1575320020.67904,1506.52
1575320020.691061,1506.75
1575320020.700048,1506.77
1575320020.70752,1505.43
1575320020.719688,1503.42
1575320020.728284,1502.64
1575320020.736162,1508.62
1575320020.744662,1524.78
1575320020.756633,1545.82
1575320020.765426,1582.47
1575320020.7731972,1629.56
1575320020.785967,1672.54
1575320020.793705,1727.63
1575320020.801664,1779.1
1575320020.810122,1814.51
1575320020.822311,1849.54
1575320020.8305368,1873.86
1575320020.838611,1886.38
1575320020.851496,1895.29
1575320020.859243,1899.42
1575320020.8679109,1900.82
1575320020.8756201,1901.09
1575320020.88769,1901.11
1575320020.8963149,1902.26
1575320020.9041479,1906.7
1575320020.916901,1916.76
1575320020.924524,1928.92
1575320020.933717,1944.95
1575320020.941206,1953.87
1575320020.953815,1953.46
1575320020.961805,1947.17
1575320020.9695811,1938.87
1575320020.9827359,1927.5
1575320020.990242,1913.83
1575320021.000261,1890.37
1575320021.006594,1862.7
1575320021.019058,1840.01
1575320021.0272021,1809.86
1575320021.0357141,1775.61
1575320021.0475461,1746.69
1575320021.055776,1713.32
1575320021.06401,1684.9
1575320021.072196,1663.48
1575320021.085286,1633.44
1575320021.0926578,1596.62
1575320021.1011992,1563.45
1575320021.113338,1520.09
1575320021.121313,1476.18
1575320021.129586,1440.66
1575320021.137644,1396.42
1575320021.150382,1355.8
1575320021.158255,1327.66
1575320021.166739,1295.85
1575320021.178764,1263.4
1575320021.1867,1235.78
1575320021.195105,1201.31
1575320021.203159,1171.96
1575320021.216179,1152.02
1575320021.223747,1142.12
1575320021.232866,1132.9
1575320021.24446,1122.66
1575320021.252747,1112.37
1575320021.260758,1096.73
1575320021.2694468,1080.18
1575320021.281944,1070.16
1575320021.2892091,1065.41
1575320021.297876,1067.8
1575320021.3097222,1069.89
1575320021.318279,1068.16
1575320021.326258,1062.33
1575320021.335114,1055.91
1575320021.3467379,1045.63
1575320021.354796,1032.54
1575320021.363088,1021.76
1575320021.375231,1012.95
1575320021.3842182,1014.27
1575320021.3916621,1022.54
1575320021.4005609,1037.52
1575320021.41202,1051.89
1575320021.420237,1060.4
1575320021.4287841,1065.28
1575320021.44068,1062.92
1575320021.449718,1054.87
1575320021.4571772,1047.82
1575320021.467434,1043.36
1575320021.4778292,1046.23
1575320021.4856892,1052.49
1575320021.494239,1060.66
1575320021.506476,1064.71
1575320021.5144582,1064.43
1575320021.522735,1063.51
1575320021.5311842,1066.79
1575320021.54323,1073.22
1575320021.551767,1084.21
1575320021.559694,1097.35
1575320021.571726,1110.2
1575320021.5801759,1129.38
1575320021.588307,1148.99
1575320021.5967062,1161.98
1575320021.608587,1175.08
1575320021.617684,1189.96
1575320021.6249359,1206.39
1575320021.637238,1232.86
1575320021.645621,1262.91
1575320021.653646,1287.06
1575320021.6621492,1314.08
1575320021.6743739,1334.95
1575320021.683297,1351.02
1575320021.6905138,1362.84
1575320021.702869,1377.99
1575320021.711044,1392.04
1575320021.7193248,1401.36
1575320021.727639,1411.12
1575320021.7397928,1420.84
1575320021.748838,1429.49
1575320021.756373,1441.1
1575320021.76915,1454.52
1575320021.7767591,1466.71
1575320021.785315,1483.94
1575320021.793153,1503.28
1575320021.805213,1519.61
1575320021.813629,1539.53
1575320021.8218088,1554.78
1575320021.83449,1561.02
1575320021.842203,1561.89
1575320021.851039,1556.52
1575320021.8586109,1549.05
1575320021.870763,1538.85
1575320021.879162,1531.33
1575320021.8874009,1529.25
1575320021.900376,1531.42
1575320021.907713,1537.65
1575320021.9165308,1546.07
1575320021.924176,1550.96
1575320021.936264,1551.9
1575320021.944736,1547.45
1575320021.952785,1542.09
1575320021.966035,1534.53
1575320021.973428,1525.18
1575320021.982511,1517.56
1575320021.989559,1509.96
1575320022.002248,1505.79
1575320022.010231,1504.92
1575320022.0187361,1504.9
1575320022.0306041,1504.78
1575320022.038698,1504.72
1575320022.047175,1505.64
1575320022.0553222,1508.75
1575320022.067908,1512.89
1575320022.075684,1520.06
1575320022.084268,1529.91
1575320022.096364,1539.81
1575320022.104256,1553.81
1575320022.112588,1567.67
1575320022.120671,1579.0
1575320022.1334689,1594.97
1575320022.141228,1612.21
1575320022.15009,1628.1
1575320022.161731,1638.46
1575320022.1696901,1647.05
1575320022.1782348,1650.83
1575320022.186176,1652.14
1575320022.199175,1652.81
1575320022.206569,1651.21
1575320022.2156758,1647.25
1575320022.227392,1638.44
1575320022.2353,1626.93
1575320022.243724,1618.14
1575320022.2521229,1609.04
1575320022.264086,1600.2
1575320022.272289,1592.42
1575320022.280576,1583.43
1575320022.2928472,1576.91
1575320022.301518,1573.13
1575320022.309344,1568.1
1575320022.3178492,1562.4
1575320022.329709,1558.72
1575320022.337856,1556.1
1575320022.346241,1553.73
1575320022.358177,1548.93
1575320022.366915,1538.78
1575320022.3746922,1529.29
1575320022.3837938,1526.43
1575320022.395364,1529.57
1575320022.403371,1536.87
1575320022.411925,1544.2
1575320022.423733,1549.86
1575320022.432738,1558.0
1575320022.440438,1565.13
1575320022.449206,1567.65
1575320022.460787,1566.11
1575320022.468713,1561.73
1575320022.4771972,1559.35
1575320022.489365,1560.51
1575320022.497705,1566.16
1575320022.505644,1571.4
1575320022.514038,1575.41
1575320022.526311,1574.54
1575320022.534864,1571.4
1575320022.542725,1568.15
1575320022.555113,1568.64
1575320022.563207,1572.35
1575320022.5713952,1578.89
1575320022.5797482,1584.68
1575320022.591593,1587.74
1575320022.600488,1588.73
1575320022.608147,1587.38
1575320022.620275,1585.12
1575320022.628802,1583.59
1575320022.636647,1583.37
1575320022.645355,1584.9
1575320022.657341,1586.68
1575320022.667063,1588.27
1575320022.673892,1588.47
1575320022.6859362,1587.43
1575320022.6940858,1584.96
1575320022.7022479,1581.54
1575320022.710538,1578.93
1575320022.722713,1576.95
1575320022.731134,1578.09
1575320022.73927,1581.39
1575320022.751938,1585.31
1575320022.759876,1584.79
1575320022.768545,1580.41
1575320022.776335,1572.72
1575320022.7882292,1564.84
1575320022.8000908,1558.09
1575320022.80465,1547.45
1575320022.8175821,1535.05
1575320022.825134,1525.51
1575320022.83395,1515.57
1575320022.841693,1506.93
1575320022.85379,1497.85
1575320022.8621309,1490.19
1575320022.870185,1481.88
1575320022.8831732,1477.13
1575320022.890917,1476.48
1575320022.899456,1478.12
1575320022.907321,1480.34
1575320022.9192681,1482.15
1575320022.927732,1485.02
1575320022.935731,1488.53
1575320022.949085,1490.51
1575320022.956316,1490.97
1575320022.965186,1491.43
1575320022.972765,1494.3
1575320022.985016,1502.37
1575320022.9933681,1512.41
1575320023.002147,1518.49
1575320023.013796,1522.24
1575320023.021641,1523.8
1575320023.0303009,1525.19
1575320023.038292,1526.56
1575320023.051104,1527.99
1575320023.058729,1529.6
1575320023.067445,1531.86
1575320023.079401,1534.36
1575320023.087303,1537.84
1575320023.0958169,1541.94
1575320023.103636,1548.64
1575320023.1167731,1556.07
1575320023.124335,1561.0
1575320023.133003,1564.05
1575320023.1450639,1563.58
1575320023.153356,1561.4
1575320023.1613498,1557.75
1575320023.169209,1554.32
1575320023.182472,1552.85
1575320023.1896582,1553.15
1575320023.1992698,1555.55
1575320023.210318,1557.84
1575320023.2186098,1559.72
1575320023.2267761,1560.84
1575320023.2351182,1561.68
1575320023.247248,1563.37
1575320023.255409,1565.35
1575320023.263763,1566.69
1575320023.2758222,1568.0
1575320023.284642,1568.73
1575320023.292203,1568.57
1575320023.300941,1568.19
1575320023.312654,1568.81
1575320023.320777,1571.12
1575320023.329101,1573.33
1575320023.341224,1575.09
1575320023.350038,1575.62
1575320023.357843,1575.79
1575320023.366697,1575.93
1575320023.378465,1575.39
1575320023.386322,1573.98
1575320023.394758,1571.23
1575320023.406822,1567.62
1575320023.4161541,1564.7
1575320023.4235141,1561.77
1575320023.435225,1559.86
1575320023.443548,1558.52
1575320023.452356,1556.95
1575320023.459981,1554.92
1575320023.4722712,1553.73
1575320023.480483,1554.08
1575320023.488704,1556.49
1575320023.500582,1558.98
1575320023.5093272,1560.77
1575320023.517786,1560.64
1575320023.525776,1560.07
1575320023.537777,1559.38
1575320023.54614,1560.43
1575320023.554283,1565.49
1575320023.5626628,1572.27
1575320023.574816,1582.09
1575320023.5836658,1591.1
1575320023.591247,1596.5
1575320023.6037052,1599.94
1575320023.6120179,1599.77
1575320023.6202939,1598.05
1575320023.628277,1596.06
1575320023.64055,1596.03
1575320023.649667,1597.98
1575320023.656672,1602.51
1575320023.669257,1606.7
1575320023.6773639,1608.1
1575320023.685747,1605.92
1575320023.693588,1599.56
1575320023.705729,1593.19
1575320023.714112,1585.82
1575320023.722176,1580.38
1575320023.7304409,1577.18
1575320023.742929,1573.86
1575320023.751745,1570.75
1575320023.759198,1568.4
1575320023.771635,1564.98
1575320023.7797608,1561.42
1575320023.7876852,1559.42
1575320023.796012,1559.67
1575320023.808319,1561.37
1575320023.8171031,1562.81
1575320023.8247838,1563.31
1575320023.83678,1562.87
1575320023.845533,1561.4
1575320023.853437,1560.69
1575320023.861828,1561.59
1575320023.873997,1563.21
1575320023.8827221,1563.71
1575320023.890091,1562.81
1575320023.9023628,1560.56
1575320023.9108748,1558.82
1575320023.9198341,1557.97
1575320023.927088,1558.72
1575320023.939376,1559.52
1575320023.947648,1559.88
1575320023.955646,1558.84
1575320023.968441,1557.68
1575320023.9763288,1556.52
1575320023.985066,1554.88
1575320023.992735,1552.42
1575320024.00485,1547.65
1575320024.013364,1541.85
1575320024.021182,1535.73
1575320024.0339851,1531.24
1575320024.041579,1526.33
1575320024.050739,1522.59
1575320024.058174,1520.98
1575320024.070322,1520.79
1575320024.078959,1522.96
1575320024.086841,1526.68
1575320024.100506,1532.94
1575320024.107323,1538.37
1575320024.116389,1538.12
1575320024.123769,1526.57
1575320024.1357791,1500.39
1575320024.144298,1471.98
1575320024.152689,1435.57
1575320024.1661508,1405.94
1575320024.1729898,1389.54
1575320024.18107,1377.89
1575320024.189276,1372.62
1575320024.202144,1370.44
1575320024.209661,1368.4
1575320024.2188668,1365.92
1575320024.230259,1363.15
1575320024.2382112,1359.4
1575320024.24679,1356.53
1575320024.2547789,1355.73
1575320024.267665,1356.98
1575320024.275221,1361.13
1575320024.284114,1365.86
1575320024.295886,1368.57
1575320024.3038452,1369.23
1575320024.3121889,1369.1
1575320024.3201768,1370.64
1575320024.3332748,1374.94
1575320024.340966,1380.59
1575320024.349968,1386.97
1575320024.3617349,1401.79
1575320024.36975,1428.52
1575320024.377774,1456.33
1575320024.385916,1490.39
1575320024.398293,1516.6
1575320024.4062011,1531.06
1575320024.414619,1544.85
1575320024.4268959,1557.97
1575320024.435276,1568.74
1575320024.4433448,1580.41
1575320024.451882,1587.35
1575320024.463719,1589.79
1575320024.471719,1591.81
1575320024.480347,1596.12
1575320024.492214,1604.17
1575320024.501177,1612.02
1575320024.508668,1620.62
1575320024.517598,1624.82
1575320024.5292091,1624.04
1575320024.5373828,1620.01
1575320024.5456982,1615.72
1575320024.557724,1613.66
1575320024.566752,1613.77
1575320024.5742059,1616.57
1575320024.583175,1620.51
1575320024.594922,1626.21
1575320024.602939,1630.39
1575320024.611284,1631.08
1575320024.62349,1628.82
1575320024.6323688,1625.93
1575320024.639821,1623.94
1575320024.648732,1620.01
1575320024.6601758,1612.77
1575320024.6684968,1605.86
1575320024.6767979,1598.38
1575320024.688991,1593.15
1575320024.697362,1590.66
1575320024.7052422,1590.13
1575320024.713633,1592.69
1575320024.725725,1597.81
1575320024.735328,1602.69
1575320024.742196,1608.13
1575320024.7544022,1611.31
1575320024.762614,1612.36
1575320024.7709608,1613.37
1575320024.779209,1615.25
1575320024.7912052,1617.48
1575320024.800012,1619.54
1575320024.807741,1619.26
1575320024.819812,1617.04
1575320024.828511,1612.7
1575320024.8364182,1608.28
1575320024.8446422,1605.61
1575320024.857018,1603.7
1575320024.866097,1602.97
1575320024.8734,1603.03
1575320024.885439,1603.81
1575320024.893864,1605.08
1575320024.902058,1605.93
1575320024.910281,1605.19
1575320024.922441,1601.23
1575320024.930808,1596.43
1575320024.9387982,1589.22
1575320024.951691,1582.34
1575320024.959439,1576.51
1575320024.967824,1573.04
1575320024.975795,1570.99
1575320024.987839,1570.51
1575320024.996171,1570.01
1575320025.0042398,1567.89
1575320025.017608,1564.34
1575320025.024661,1561.23
1575320025.0336661,1558.38
1575320025.041093,1557.44
1575320025.053309,1557.16
1575320025.061952,1555.19
1575320025.069957,1551.74
1575320025.083117,1548.71
1575320025.090247,1544.47
1575320025.099294,1538.88
1575320025.1069372,1533.76
1575320025.118927,1527.61
1575320025.12734,1523.56
1575320025.135574,1523.24
1575320025.1476989,1525.9
1575320025.15587,1529.93
1575320025.165963,1533.15
1575320025.1723342,1536.56
1575320025.184896,1539.3
1575320025.192953,1541.62
1575320025.202581,1542.86
1575320025.213405,1543.19
1575320025.2213278,1541.92
1575320025.229734,1540.59
1575320025.2376819,1540.52
1575320025.2507288,1542.85
1575320025.258404,1547.28
1575320025.2671108,1555.55
1575320025.279139,1562.71
1575320025.286869,1563.37
1575320025.295577,1554.52
1575320025.303286,1535.52
1575320025.316333,1515.18
1575320025.324032,1486.14
1575320025.332722,1457.77
1575320025.344573,1439.31
1575320025.3530838,1424.34
1575320025.360877,1418.41
1575320025.3688068,1420.76
1575320025.381221,1431.71
1575320025.389411,1445.98
1575320025.397679,1454.95
1575320025.409854,1461.12
1575320025.418315,1464.69
1575320025.426464,1469.74
1575320025.4350631,1474.76
1575320025.446839,1479.6
1575320025.4549189,1482.53
1575320025.46331,1486.4
1575320025.4754822,1496.3
1575320025.4843142,1511.35
1575320025.491782,1525.45
1575320025.500505,1543.77
1575320025.512286,1561.24
1575320025.5202901,1573.78
1575320025.528971,1588.39
1575320025.540834,1604.62
1575320025.550008,1619.99
1575320025.557247,1639.99
1575320025.566787,1656.32
1575320025.577975,1665.68
1575320025.5860338,1675.41
1575320025.594368,1686.67
1575320025.6063192,1697.64
1575320025.6163251,1713.0
1575320025.622726,1729.16
1575320025.6312718,1741.59
1575320025.64334,1752.26
1575320025.651916,1752.84
1575320025.6597052,1741.68
1575320025.671971,1725.66
1575320025.680289,1700.74
1575320025.688298,1674.77
1575320025.696859,1655.94
1575320025.7086668,1635.95
1575320025.718101,1618.2
1575320025.725261,1602.96
1575320025.737372,1579.22
1575320025.74579,1550.43
1575320025.753991,1527.32
1575320025.7624052,1504.53
1575320025.774369,1490.79
1575320025.783019,1485.05
1575320025.7910771,1483.12
1575320025.802907,1483.35
1575320025.81149,1482.31
1575320025.8194618,1476.79
1575320025.827859,1466.47
1575320025.839915,1456.47
1575320025.848325,1443.71
1575320025.8563359,1432.46
1575320025.86894,1425.25
1575320025.876915,1418.56
1575320025.885448,1413.33
1575320025.893111,1408.65
1575320025.905497,1405.76
1575320025.913839,1403.11
1575320025.9218829,1399.43
1575320025.934578,1394.42
1575320025.942455,1386.63
1575320025.95111,1380.08
1575320025.9586968,1376.42
1575320025.970925,1372.65
1575320025.979255,1369.41
1575320025.9874518,1366.0
1575320026.000473,1360.38
1575320026.0078132,1356.32
1575320026.0165498,1356.43
1575320026.024449,1359.77
1575320026.036397,1363.97
1575320026.044926,1367.76
1575320026.052869,1375.52
1575320026.06579,1388.39
1575320026.073447,1401.53
1575320026.082719,1419.38
1575320026.089868,1437.38
1575320026.102078,1451.95
1575320026.1102562,1471.9
1575320026.118902,1495.47
1575320026.13076,1523.06
1575320026.1388118,1547.24
1575320026.1471639,1579.14
1575320026.155402,1610.86
1575320026.168113,1633.74
1575320026.175719,1656.11
1575320026.1845021,1671.08
1575320026.1965172,1679.06
1575320026.2044501,1685.41
1575320026.212675,1687.97
1575320026.220798,1687.79
1575320026.235848,1685.89
1575320026.2411861,1684.99
1575320026.250058,1686.24
1575320026.262099,1690.07
1575320026.269896,1694.68
1575320026.2783492,1698.54
1575320026.286289,1703.82
1575320026.299902,1707.73
1575320026.306989,1707.73
1575320026.31627,1702.54
1575320026.327643,1694.94
1575320026.336138,1690.04
1575320026.3439019,1685.64
1575320026.351829,1680.21
1575320026.3644218,1671.14
1575320026.372382,1661.68
1575320026.380789,1649.81
1575320026.3929012,1641.08
1575320026.401576,1636.53
1575320026.409445,1629.74
1575320026.417998,1615.64
1575320026.429877,1598.09
1575320026.437891,1572.95
1575320026.446306,1550.08
1575320026.458244,1536.11
1575320026.467135,1525.44
1575320026.4748101,1521.16
1575320026.4852328,1518.67
1575320026.495647,1511.56
1575320026.5034082,1498.61
1575320026.51191,1486.35
1575320026.523829,1472.35
1575320026.532748,1461.61
1575320026.540477,1455.71
1575320026.549313,1450.83
1575320026.5609941,1446.26
1575320026.569605,1441.25
1575320026.5772228,1433.07
1575320026.5895329,1423.87
1575320026.597759,1415.29
1575320026.6059608,1409.43
1575320026.614134,1403.83
1575320026.626477,1400.57
1575320026.635265,1399.48
1575320026.6429482,1399.99
1575320026.655031,1402.77
1575320026.663661,1406.17
1575320026.6717381,1409.41
1575320026.679852,1409.85
1575320026.691784,1408.23
1575320026.700709,1405.71
1575320026.708241,1404.7
1575320026.720407,1405.16
1575320026.728788,1407.03
1575320026.737111,1410.96
1575320026.7451808,1415.28
1575320026.7576141,1421.55
1575320026.766892,1428.54
1575320026.773859,1434.63
1575320026.786162,1439.88
1575320026.794492,1438.12
1575320026.80339,1430.85
1575320026.810932,1416.35
1575320026.822923,1399.1
1575320026.8312461,1379.7
1575320026.839416,1363.7
1575320026.852416,1348.57
1575320026.8599072,1342.93
1575320026.868473,1345.16
1575320026.876462,1352.69
1575320026.88841,1359.27
1575320026.896939,1361.33
1575320026.904842,1361.7
1575320026.917857,1365.26
1575320026.9254029,1373.6
1575320026.9341838,1391.77
1575320026.941901,1415.76
1575320026.953952,1435.42
1575320026.962455,1456.43
1575320026.970293,1471.68
1575320026.9839208,1481.25
1575320026.990866,1494.98
1575320027.000531,1515.99
1575320027.007342,1539.73
1575320027.019757,1576.07
1575320027.027912,1614.55
1575320027.0363111,1642.79
1575320027.048906,1671.61
1575320027.056512,1692.37
1575320027.064646,1705.29
1575320027.072918,1711.24
1575320027.0855548,1715.86
1575320027.093463,1720.4
1575320027.10209,1725.68
1575320027.1139572,1734.58
1575320027.121998,1743.92
1575320027.130365,1750.36
1575320027.1383512,1755.6
1575320027.1512141,1754.75
1575320027.1589131,1749.52
1575320027.167906,1740.19
1575320027.179323,1729.84
1575320027.187456,1719.69
1575320027.195799,1703.8
1575320027.2038112,1687.08
1575320027.2168589,1675.34
1575320027.2243562,1662.91
1575320027.2332,1650.2
1575320027.244813,1638.13
1575320027.2530282,1621.08
1575320027.261253,1607.49
1575320027.26943,1602.33
1575320027.283454,1600.97
1575320027.290015,1598.05
1575320027.298505,1589.09
1575320027.310624,1578.52
1575320027.318858,1564.5
1575320027.326974,1554.31
1575320027.335509,1549.55
1575320027.347357,1545.35
1575320027.3553889,1540.08
1575320027.363869,1534.34
1575320027.3760011,1526.38
1575320027.384622,1520.84
1575320027.392475,1520.28
1575320027.401254,1524.36
1575320027.412868,1531.27
1575320027.420945,1537.18
1575320027.429213,1545.29
1575320027.441322,1555.87
1575320027.450138,1565.32
1575320027.4578712,1575.59
1575320027.4667032,1582.5
1575320027.478507,1585.92
1575320027.4865558,1587.53
1575320027.494873,1585.43
1575320027.507103,1580.27
1575320027.515587,1569.82
1575320027.523314,1557.11
1575320027.533,1546.69
1575320027.544039,1542.93
1575320027.552932,1544.37
1575320027.560512,1549.48
1575320027.572604,1553.45
1575320027.580849,1556.73
1575320027.588993,1558.22
1575320027.597325,1558.65
1575320027.609496,1558.56
1575320027.6180701,1557.63
1575320027.625976,1555.28
1575320027.637963,1548.88
1575320027.646595,1539.03
1575320027.654397,1531.07
1575320027.663002,1525.63
1575320027.6751769,1527.28
1575320027.6838999,1530.35
1575320027.6912372,1531.16
1575320027.703467,1527.13
1575320027.7117598,1522.29
1575320027.719888,1515.43
1575320027.728172,1505.52
1575320027.7403378,1495.22
1575320027.749915,1483.54
1575320027.7569542,1476.25
1575320027.7694468,1472.74
1575320027.777534,1472.05
1575320027.7863932,1472.22
1575320027.79391,1471.03
1575320027.805908,1468.55
1575320027.814433,1464.18
1575320027.82234,1458.37
1575320027.835346,1453.34
1575320027.843037,1448.2
1575320027.852043,1445.26
1575320027.859437,1443.99
1575320027.871506,1442.21
1575320027.879958,1439.21
1575320027.887902,1436.76
1575320027.900793,1436.01
1575320027.90832,1438.66
1575320027.9172459,1441.96
1575320027.924955,1445.61
1575320027.937,1447.47
1575320027.945618,1447.22
1575320027.9537,1444.6
1575320027.962004,1440.73
1575320027.974132,1437.86
1575320027.983101,1435.6
1575320027.990307,1434.35
1575320028.002719,1432.74
1575320028.0109599,1430.49
1575320028.0194821,1426.97
1575320028.027454,1425.01
1575320028.039552,1425.8
1575320028.047714,1429.73
1575320028.055777,1436.41
1575320028.0689652,1442.81
1575320028.0765178,1450.39
1575320028.0851579,1455.94
1575320028.092921,1458.07
1575320028.104975,1457.05
1575320028.1135428,1454.08
1575320028.121561,1452.81
1575320028.1342201,1454.43
1575320028.14197,1457.87
1575320028.150611,1460.62
1575320028.158429,1464.06
1575320028.170528,1467.28
1575320028.178835,1468.72
1575320028.186898,1467.92
1575320028.2005172,1463.75
1575320028.207316,1459.5
1575320028.216602,1455.87
1575320028.2237818,1455.88
1575320028.236018,1459.54
1575320028.244416,1463.65
1575320028.2524679,1468.34
1575320028.264857,1471.92
1575320028.272884,1474.13
1575320028.281268,1476.22
1575320028.28941,1478.2
1575320028.302171,1480.28
1575320028.3100019,1484.07
1575320028.318603,1488.24
1575320028.330622,1491.48
1575320028.338552,1495.28
1575320028.347084,1498.16
1575320028.355001,1499.26
1575320028.367786,1498.55
1575320028.3754392,1495.08
1575320028.384246,1491.22
1575320028.396022,1487.11
1575320028.404293,1485.15
1575320028.412577,1485.7
1575320028.420607,1488.17
1575320028.433588,1491.27
1575320028.440885,1493.28
1575320028.449771,1494.79
1575320028.461697,1494.96
1575320028.469915,1495.12
1575320028.477986,1496.7
1575320028.485867,1500.71
1575320028.500889,1504.39
1575320028.506374,1505.37
1575320028.515857,1506.62
1575320028.527117,1514.68
1575320028.53556,1530.05
1575320028.543547,1558.0
1575320028.551984,1588.57
1575320028.563919,1610.06
1575320028.571945,1629.96
1575320028.5804338,1641.47
1575320028.592584,1646.14
1575320028.601114,1649.56
1575320028.60891,1652.79
1575320028.6176362,1655.22
1575320028.629293,1657.48
1575320028.637485,1658.09
1575320028.646089,1657.46
1575320028.657974,1655.4
1575320028.667695,1651.3
1575320028.674548,1646.51
1575320028.683638,1639.9
1575320028.695106,1635.31
1575320028.702941,1633.8
1575320028.711305,1634.3
1575320028.7234619,1635.57
1575320028.732022,1635.68
1575320028.739806,1634.42
1575320028.748139,1632.23
1575320028.760671,1630.37
1575320028.7692358,1629.36
1575320028.777102,1628.2
1575320028.789116,1625.92
1575320028.797518,1623.74
1575320028.805569,1623.83
1575320028.813658,1629.45
1575320028.826039,1636.71
1575320028.834738,1646.84
1575320028.842392,1656.34
1575320028.854476,1662.81
1575320028.862986,1669.48
1575320028.870952,1674.0
1575320028.87939,1675.44
1575320028.8913972,1674.26
1575320028.900301,1670.1
1575320028.9077911,1666.14
1575320028.920019,1662.77
1575320028.9286048,1662.05
1575320028.936597,1662.33
1575320028.94493,1661.56
1575320028.957078,1658.29
1575320028.967444,1652.25
1575320028.973341,1645.5
1575320028.985557,1635.43
1575320028.994071,1626.34
1575320029.003498,1622.07
1575320029.010473,1621.34
1575320029.022471,1624.12
1575320029.0309749,1626.29
1575320029.03891,1626.42
1575320029.0518148,1623.3
1575320029.059488,1619.04
1575320029.068247,1613.4
1575320029.075983,1609.6
1575320029.08794,1608.22
1575320029.096561,1607.34
1575320029.10445,1605.27
1575320029.117195,1601.89
1575320029.1250072,1596.28
1575320029.133594,1590.99
1575320029.141361,1587.94
1575320029.153457,1585.82
1575320029.1620731,1585.04
1575320029.169961,1584.7
1575320029.1835861,1585.12
1575320029.190655,1587.24
1575320029.199886,1589.65
1575320029.206978,1590.19
1575320029.219383,1588.31
1575320029.227375,1584.22
1575320029.2360141,1580.05
1575320029.247794,1575.09
1575320029.256147,1571.57
1575320029.26444,1569.96
1575320029.2725492,1569.58
1575320029.2856479,1570.8
1575320029.29299,1572.58
1575320029.301569,1575.6
1575320029.313566,1579.2
1575320029.321534,1582.03
1575320029.3298838,1584.43
1575320029.3380291,1585.87
1575320029.350812,1586.83
1575320029.3583722,1587.37
1575320029.3673222,1586.83
1575320029.3791559,1585.82
1575320029.387043,1583.25
1575320029.395553,1578.94
1575320029.403371,1573.85
1575320029.416588,1569.56
1575320029.424085,1564.26
1575320029.4324439,1560.0
1575320029.4446652,1557.86
1575320029.452554,1556.11
1575320029.46106,1554.4
1575320029.469829,1553.6
1575320029.4817421,1554.28
1575320029.489595,1556.45
1575320029.497795,1558.48
1575320029.510102,1559.57
1575320029.5187259,1558.55
1575320029.5266051,1557.24
1575320029.535361,1556.09
1575320029.5470212,1556.35
1575320029.55493,1557.07
1575320029.5635672,1557.18
1575320029.575565,1555.77
1575320029.5841541,1554.29
1575320029.5917969,1552.99
1575320029.600566,1552.94
1575320029.6126301,1554.19
1575320029.620565,1557.15
1575320029.6290822,1560.68
1575320029.6410408,1564.37
1575320029.65049,1566.41
1575320029.657451,1566.06
1575320029.667697,1562.72
1575320029.677946,1559.28
1575320029.6860092,1555.99
1575320029.6944199,1555.03
1575320029.706699,1555.89
1575320029.714947,1559.69
1575320029.722941,1571.56
1575320029.731186,1591.44
1575320029.743435,1631.69
1575320029.752841,1686.06
1575320029.760025,1734.59
1575320029.771977,1793.72
1575320029.780489,1843.3
1575320029.788463,1873.36
1575320029.796989,1899.14
1575320029.8090508,1916.3
1575320029.817909,1927.82
1575320029.825474,1941.24
1575320029.837565,1951.37
1575320029.846129,1954.23
1575320029.854053,1951.46
1575320029.86246,1945.0
1575320029.8744378,1936.08
1575320029.883324,1927.2
1575320029.891086,1913.77
1575320029.903221,1894.72
1575320029.911457,1873.05
1575320029.9195929,1838.73
1575320029.92787,1799.13
1575320029.940159,1765.25
1575320029.9486878,1722.68
1575320029.9565718,1681.05
1575320029.969245,1649.52
1575320029.977118,1613.86
1575320029.985566,1582.26
1575320029.993484,1558.06
1575320030.005673,1526.81
1575320030.014059,1495.5
1575320030.021848,1474.76
1575320030.03493,1458.69
1575320030.0426052,1452.62
1575320030.05124,1450.64
1575320030.058882,1446.89
1575320030.0710971,1440.56
1575320030.0794392,1434.19
1575320030.0875368,1423.87
1575320030.100478,1409.79
1575320030.1078541,1392.97
1575320030.116959,1379.97
1575320030.124584,1367.05
1575320030.1365602,1357.68
1575320030.145087,1351.57
1575320030.153404,1344.78
1575320030.165463,1337.7
1575320030.1735868,1332.71
1575320030.1839979,1330.8
1575320030.189866,1335.72
1575320030.202626,1343.81
1575320030.210557,1355.49
1575320030.2193038,1362.97
1575320030.230836,1363.21
1575320030.238964,1357.54
1575320030.24733,1349.9
1575320030.255421,1344.81
1575320030.268563,1340.21
1575320030.275933,1336.16
1575320030.284796,1332.04
1575320030.296803,1326.92
1575320030.304627,1325.64
1575320030.31302,1328.94
1575320030.321132,1335.96
1575320030.333853,1340.81
1575320030.341474,1340.4
1575320030.351281,1336.52
1575320030.362268,1328.42
1575320030.37008,1317.97
1575320030.378539,1309.55
1575320030.3864472,1302.0
1575320030.39956,1297.13
1575320030.407134,1294.12
1575320030.416702,1291.2
1575320030.4277399,1291.63
1575320030.436183,1295.13
1575320030.444124,1300.06
1575320030.4527822,1300.6
1575320030.4643881,1297.41
1575320030.4724941,1294.19
1575320030.480908,1296.93
1575320030.49316,1303.4
1575320030.502091,1314.72
1575320030.5094988,1326.0
1575320030.5183291,1332.69
1575320030.529953,1338.07
1575320030.538095,1342.02
1575320030.54638,1345.0
1575320030.558496,1346.36
1575320030.56742,1343.72
1575320030.5750961,1340.57
1575320030.584517,1340.84
1575320030.5957398,1346.25
1575320030.603533,1356.37
1575320030.612056,1366.78
1575320030.623991,1379.23
1575320030.633208,1386.78
1575320030.640448,1388.88
1575320030.650175,1390.31
1575320030.661116,1395.45
1575320030.669591,1403.81
1575320030.6777642,1417.86
1575320030.689545,1430.58
1575320030.700427,1436.91
1575320030.706057,1441.3
1575320030.714439,1444.6
1575320030.726464,1447.17
1575320030.736008,1449.96
1575320030.742877,1451.78
1575320030.755091,1452.67
1575320030.763556,1454.19
1575320030.771539,1456.64
1575320030.780103,1457.99
1575320030.79207,1455.74
1575320030.8010602,1447.4
1575320030.808484,1435.16
1575320030.820611,1425.49
1575320030.829089,1416.1
1575320030.837783,1410.61
1575320030.845537,1409.41
1575320030.857822,1411.47
1575320030.866533,1416.77
1575320030.874091,1422.31
1575320030.886145,1429.01
1575320030.894607,1433.49
1575320030.902543,1434.75
1575320030.910882,1434.19
1575320030.923163,1432.77
1575320030.931406,1431.53
1575320030.939638,1431.42
1575320030.95248,1435.08
1575320030.9601479,1440.4
1575320030.968693,1447.92
1575320030.976628,1454.7
1575320030.988717,1458.34
1575320030.997105,1459.36
1575320031.004991,1456.83
1575320031.0183392,1453.92
1575320031.0256152,1451.03
1575320031.034397,1450.0
1575320031.04187,1450.79
1575320031.054106,1452.94
1575320031.062609,1456.81
1575320031.070461,1460.01
1575320031.0837839,1461.79
1575320031.091041,1463.86
1575320031.099937,1467.01
1575320031.1076732,1470.15
1575320031.1201339,1473.33
1575320031.12808,1475.19
1575320031.136203,1475.16
1575320031.1488,1473.08
1575320031.156696,1472.52
1575320031.1650329,1475.96
1575320031.17309,1484.14
1575320031.1854331,1491.02
1575320031.193633,1492.41
1575320031.2022688,1489.63
1575320031.214124,1486.21
1575320031.2221491,1485.53
1575320031.230495,1486.82
1575320031.2384331,1488.78
1575320031.2514272,1491.06
1575320031.259074,1493.57
1575320031.267679,1491.99
1575320031.2795782,1484.87
1575320031.2876291,1477.36
1575320031.296407,1471.02
1575320031.3042839,1471.25
1575320031.317387,1476.26
1575320031.324453,1486.89
1575320031.333288,1499.54
1575320031.345335,1509.93
1575320031.353271,1522.45
1575320031.361645,1532.87
1575320031.369796,1539.58
1575320031.382001,1546.2
1575320031.3902562,1551.28
1575320031.3986292,1553.68
1575320031.410869,1553.89
1575320031.419359,1551.42
1575320031.4271061,1548.19
1575320031.43512,1544.18
1575320031.447608,1542.58
1575320031.455437,1543.87
1575320031.464056,1546.8
1575320031.476144,1547.59
1575320031.484859,1544.46
1575320031.492655,1536.02
1575320031.501187,1527.34
1575320031.5129778,1520.51
1575320031.521044,1513.64
1575320031.529377,1499.04
1575320031.541457,1476.03
1575320031.550713,1453.18
1575320031.557842,1422.89
1575320031.567008,1396.97
1575320031.578662,1384.43
1575320031.586726,1380.69
1575320031.5951512,1385.02
1575320031.607064,1388.11
1575320031.616277,1386.65
1575320031.623669,1382.05
1575320031.6319702,1381.93
1575320031.644228,1391.94
1575320031.652571,1411.4
1575320031.660713,1428.56
1575320031.672663,1445.04
1575320031.682496,1452.21
1575320031.689033,1453.54
1575320031.697601,1454.35
1575320031.709824,1456.98
1575320031.71827,1459.19
1575320031.725918,1459.15
1575320031.738142,1455.88
1575320031.7465951,1453.1
1575320031.754566,1453.02
1575320031.762888,1454.93
1575320031.774965,1458.16
1575320031.7842839,1461.94
1575320031.791448,1468.34
1575320031.803631,1473.77
1575320031.812192,1475.24
1575320031.8200488,1473.61
1575320031.8285341,1471.54
1575320031.8407528,1472.83
1575320031.849403,1479.73
1575320031.8571038,1487.08
1575320031.869195,1488.95
1575320031.8777852,1486.89
1575320031.886399,1485.14
1575320031.89414,1486.44
1575320031.9062269,1490.15
1575320031.914539,1492.52
1575320031.922569,1493.25
1575320031.935793,1493.68
1575320031.943167,1494.7
1575320031.951862,1495.87
1575320031.959529,1497.22
1575320031.971602,1498.18
1575320031.980004,1497.49
1575320031.988054,1494.77
1575320032.001246,1490.69
1575320032.008532,1491.49
1575320032.017567,1497.01
1575320032.024944,1505.97
1575320032.037117,1511.73
1575320032.045753,1512.31
1575320032.0542872,1508.77
1575320032.0675619,1504.99
1575320032.074019,1504.69
1575320032.082999,1508.92
1575320032.090587,1517.81
1575320032.102697,1526.91
1575320032.111179,1537.89
1575320032.119779,1545.41
1575320032.132407,1546.5
1575320032.13964,1542.14
1575320032.14787,1536.12
1575320032.1561909,1533.91
1575320032.16878,1535.09
1575320032.176754,1537.7
1575320032.185225,1539.39
1575320032.1927629,1541.24
1575320032.2052622,1542.47
1575320032.213674,1542.81
1575320032.2216551,1543.49
1575320032.23489,1547.38
1575320032.241892,1556.74
1575320032.2505128,1568.01
1575320032.258533,1582.89
1575320032.270723,1593.88
1575320032.279265,1598.28
1575320032.2869918,1599.09
1575320032.300357,1597.98
1575320032.307652,1597.47
1575320032.316629,1596.87
1575320032.3241222,1595.12
1575320032.3361769,1592.34
1575320032.344617,1587.42
1575320032.3533142,1582.98
1575320032.366237,1580.62
1575320032.373199,1577.75
1575320032.3815649,1574.25
1575320032.3894222,1571.09
1575320032.4024131,1566.34
1575320032.4101272,1560.51
1575320032.418447,1556.26
1575320032.430673,1553.87
1575320032.438571,1556.23
1575320032.447099,1562.66
1575320032.454989,1568.52
1575320032.468042,1573.17
1575320032.475585,1573.2
1575320032.484405,1572.31
1575320032.496664,1572.51
1575320032.50436,1572.56
1575320032.512789,1569.2
1575320032.5206752,1557.99
1575320032.533868,1540.88
1575320032.541018,1525.83
1575320032.5501702,1507.98
1575320032.561854,1493.34
1575320032.569778,1485.23
1575320032.578144,1481.27
1575320032.586632,1485.26
1575320032.5986161,1493.81
1575320032.606542,1506.5
1575320032.615077,1514.17
1575320032.626983,1512.55
1575320032.635631,1500.83
1575320032.6436548,1484.75
1575320032.652087,1474.8
1575320032.664086,1471.45
1575320032.6724648,1479.06
1575320032.680917,1492.27
1575320032.6927202,1501.14
1575320032.701283,1504.11
1575320032.709076,1495.12
1575320032.718029,1481.31
1575320032.7295182,1462.73
1575320032.737578,1451.28
1575320032.74604,1451.25
1575320032.758052,1462.6
1575320032.76707,1479.91
1575320032.7744708,1492.23
1575320032.783662,1500.85
1575320032.7952352,1499.27
1575320032.80351,1491.14
1575320032.811645,1476.36
1575320032.823614,1462.72
1575320032.832,1456.43
1575320032.840134,1456.66
1575320032.8486688,1464.5
1575320032.86076,1473.74
1575320032.869289,1484.88
1575320032.87712,1491.36
1575320032.889332,1492.89
1575320032.899648,1493.99
1575320032.905637,1501.82
1575320032.9140558,1520.76
1575320032.926265,1541.57
1575320032.934891,1568.0
1575320032.942663,1588.34
1575320032.9546728,1598.06
1575320032.963097,1603.2
1575320032.971305,1605.23
1575320032.979572,1607.73
1575320032.991524,1612.86
1575320033.001533,1618.65
1575320033.008105,1622.21
1575320033.0208871,1624.68
1575320033.028716,1626.7
1575320033.0366452,1629.34
1575320033.045064,1633.9
1575320033.057293,1638.21
1575320033.065616,1639.93
1575320033.073529,1638.51
1575320033.086185,1633.75
1575320033.0942342,1629.24
1575320033.1029592,1624.38
1575320033.110441,1620.68
1575320033.122842,1617.56
1575320033.131111,1612.35
1575320033.139012,1605.57
1575320033.1521962,1598.34
1575320033.1596842,1593.44
1575320033.168406,1588.9
1575320033.176121,1585.31
1575320033.188441,1583.83
1575320033.196458,1587.25
1575320033.204632,1600.66
1575320033.217961,1618.36
1575320033.225025,1643.26
1575320033.234375,1664.72
1575320033.2413921,1677.71
1575320033.2537432,1689.59
1575320033.262198,1698.36
1575320033.271272,1703.3
1575320033.283056,1707.2
1575320033.290841,1709.8
1575320033.3001442,1711.33
1575320033.307101,1711.93
1575320033.319842,1709.57
1575320033.327592,1705.0
1575320033.336072,1697.34
1575320033.348002,1689.94
1575320033.356074,1686.1
1575320033.364456,1685.38
1575320033.3724852,1688.92
1575320033.3856661,1692.48
1575320033.3932211,1692.97
1575320033.401969,1690.49
1575320033.4137611,1685.41
1575320033.421721,1679.9
1575320033.430261,1672.31
1575320033.438112,1664.68
1575320033.4512,1659.33
1575320033.4586618,1653.99
1575320033.4680882,1650.48
1575320033.4793558,1649.08
1575320033.4872582,1647.91
1575320033.4959419,1646.21
1575320033.503608,1644.07
1575320033.5177019,1640.71
1575320033.524074,1636.64
1575320033.533299,1632.54
1575320033.544909,1627.23
1575320033.5535,1623.25
1575320033.561161,1621.42
1575320033.569421,1619.99
1575320033.581612,1618.6
1575320033.5897028,1616.78
1575320033.5979872,1613.46
1575320033.610108,1609.68
1575320033.618905,1607.52
1575320033.626674,1607.87
1575320033.6353312,1610.67
1575320033.647188,1613.75
1575320033.655494,1614.24
1575320033.663528,1612.05
1575320033.675766,1608.6
1575320033.6837308,1606.3
1575320033.692182,1604.49
1575320033.702581,1602.34
1575320033.7128792,1599.96
1575320033.72098,1597.0
1575320033.729055,1595.44
1575320033.74119,1595.7
1575320033.7500129,1597.62
1575320033.757461,1599.88
1575320033.7664168,1601.19
1575320033.778021,1603.0
1575320033.786516,1605.69
1575320033.794697,1608.12
1575320033.806647,1611.25
1575320033.814961,1613.78
1575320033.823241,1615.03
1575320033.831593,1615.04
1575320033.843667,1614.05
1575320033.852263,1613.02
1575320033.860167,1613.1
1575320033.8722079,1615.62
1575320033.880773,1620.55
1575320033.888617,1624.33
1575320033.8972712,1626.04
1575320033.909201,1624.24
1575320033.91806,1621.11
1575320033.9255838,1615.98
1575320033.937763,1610.21
1575320033.9463081,1606.39
1575320033.954497,1603.67
1575320033.9625962,1603.4
1575320033.9746299,1604.82
1575320033.983779,1606.38
1575320033.991161,1605.69
1575320034.003402,1603.47
1575320034.01171,1599.42
1575320034.0205739,1595.63
1575320034.0281658,1593.41
1575320034.0401971,1591.63
1575320034.049247,1590.43
1575320034.05675,1590.13
1575320034.069483,1589.96
1575320034.0772321,1588.94
1575320034.085372,1586.22
1575320034.093699,1583.29
1575320034.1057012,1579.63
1575320034.1142871,1576.43
1575320034.1222699,1575.04
1575320034.134921,1575.91
1575320034.142715,1579.67
1575320034.151455,1583.16
1575320034.159214,1585.89
1575320034.171215,1585.94
1575320034.179671,1583.64
1575320034.1877198,1579.13
1575320034.202146,1575.74
1575320034.208075,1575.9
1575320034.2174551,1579.18
1575320034.2244868,1582.42
1575320034.2367208,1583.04
1575320034.2450318,1580.39
1575320034.2532291,1574.83
1575320034.266551,1570.03
1575320034.273856,1564.34
1575320034.282542,1559.41
1575320034.290081,1556.63
1575320034.302297,1554.85
1575320034.310774,1551.01
1575320034.3193321,1538.56
1575320034.3310149,1520.84
1575320034.339354,1492.62
1575320034.3475819,1464.17
1575320034.355482,1445.69
1575320034.368737,1430.74
1575320034.3761752,1424.41
1575320034.384958,1422.89
1575320034.396802,1422.3
1575320034.404754,1421.56
1575320034.413111,1420.84
1575320034.421054,1420.22
1575320034.434453,1420.46
1575320034.44159,1420.84
1575320034.45043,1421.93
1575320034.462255,1424.08
1575320034.470307,1426.37
1575320034.478734,1428.59
1575320034.4871218,1427.27
1575320034.499836,1423.16
1575320034.507204,1417.37
1575320034.516054,1415.61
1575320034.527978,1418.1
1575320034.5364811,1424.93
1575320034.544231,1434.39
1575320034.552403,1446.27
1575320034.564668,1458.38
1575320034.5726259,1475.52
1575320034.5812259,1489.73
1575320034.593267,1494.57
1575320034.6018891,1490.42
1575320034.609823,1479.62
1575320034.618332,1471.95
1575320034.630111,1468.72
1575320034.638287,1471.32
1575320034.646591,1473.55
1575320034.658726,1472.64
1575320034.668042,1468.63
1575320034.6752179,1466.54
1575320034.684261,1467.29
1575320034.695668,1469.33
1575320034.703684,1468.97
1575320034.712159,1466.21
1575320034.7241988,1464.18
1575320034.733523,1463.95
1575320034.740623,1463.82
1575320034.749963,1460.13
1575320034.761222,1452.6
1575320034.7695029,1439.75
1575320034.777756,1429.01
1575320034.789712,1422.05
1575320034.798004,1416.77
1575320034.8063009,1406.22
1575320034.814668,1390.48
1575320034.826796,1376.59
1575320034.835656,1360.8
1575320034.843244,1347.9
1575320034.855278,1337.78
1575320034.863748,1324.08
1575320034.87185,1313.65
1575320034.8801,1310.73
1575320034.892328,1312.85
1575320034.901487,1317.75
1575320034.908541,1321.63
1575320034.9207401,1324.97
1575320034.929406,1326.12
1575320034.937398,1326.55
1575320034.945638,1328.72
1575320034.95783,1332.77
1575320034.966711,1334.72
1575320034.974263,1332.26
1575320034.9862962,1324.0
1575320034.994768,1314.65
1575320035.00326,1304.88
1575320035.011183,1303.61
1575320035.023376,1311.31
1575320035.031679,1320.04
1575320035.0395951,1329.16
1575320035.0523908,1335.04
1575320035.06033,1338.46
1575320035.06889,1341.89
1575320035.076718,1344.0
1575320035.0887082,1343.97
1575320035.097606,1341.5
1575320035.105055,1337.57
1575320035.1179578,1335.2
1575320035.1257641,1335.26
1575320035.134741,1339.97
1575320035.142111,1346.45
1575320035.154455,1354.77
1575320035.1628978,1358.54
1575320035.170874,1356.47
1575320035.184247,1350.42
1575320035.1912792,1345.98
1575320035.20035,1346.12
1575320035.207545,1349.88
1575320035.219851,1353.1
1575320035.228071,1352.72
1575320035.236813,1348.71
1575320035.24853,1343.55
1575320035.256674,1341.3
1575320035.264957,1342.77
1575320035.273206,1345.6
1575320035.285723,1343.18
1575320035.293772,1336.58
1575320035.302303,1328.68
1575320035.314317,1328.22
1575320035.32228,1332.99
1575320035.3308082,1340.02
1575320035.33868,1344.74
1575320035.35187,1347.65
1575320035.359207,1352.39
1575320035.3680482,1358.8
1575320035.379838,1365.19
1575320035.387765,1375.25
1575320035.396162,1389.39
1575320035.404279,1404.08
1575320035.4177558,1425.06
1575320035.42462,1444.25
1575320035.43408,1454.62
1575320035.445506,1460.36
1575320035.453533,1462.7
1575320035.461788,1467.38
1575320035.469874,1480.09
1575320035.482194,1497.15
1575320035.490219,1512.81
1575320035.499936,1523.15
1575320035.510869,1534.28
1575320035.519406,1544.44
1575320035.527338,1552.25
1575320035.5358562,1561.08
1575320035.547767,1568.56
1575320035.555649,1574.02
1575320035.5641751,1580.98
1575320035.576375,1589.2
1575320035.584971,1595.86
1575320035.592724,1603.32
1575320035.6014988,1608.78
1575320035.613194,1610.81
1575320035.621422,1610.48
1575320035.629645,1607.36
1575320035.6416261,1603.42
1575320035.650773,1597.66
1575320035.65824,1591.25
1575320035.668399,1585.25
1575320035.678807,1576.02
1575320035.686802,1565.41
1575320035.6953049,1557.35
1575320035.707396,1549.59
1575320035.7170718,1544.69
1575320035.723579,1540.22
1575320035.73198,1535.2
1575320035.744179,1528.43
1575320035.753029,1521.91
1575320035.760536,1516.49
1575320035.772846,1509.02
1575320035.781285,1502.04
1575320035.789302,1498.74
1575320035.797686,1499.6
1575320035.809851,1505.19
1575320035.818665,1510.28
1575320035.826145,1513.79
1575320035.838242,1513.71
1575320035.8467321,1512.72
1575320035.854804,1512.49
1575320035.863096,1514.71
1575320035.875183,1518.47
1575320035.884234,1525.73
1575320035.8915882,1535.53
1575320035.903844,1543.87
1575320035.912259,1553.08
1575320035.920214,1560.42
1575320035.928542,1565.06
1575320035.940908,1568.57
1575320035.949211,1569.42
1575320035.957132,1567.74
1575320035.969387,1565.08
1575320035.97788,1562.4
1575320035.987177,1560.88
1575320035.9942799,1559.47
1575320036.0063858,1555.9
1575320036.014737,1548.99
1575320036.022675,1541.08
1575320036.035736,1530.44
1575320036.043413,1522.76
1575320036.05201,1520.24
1575320036.0597582,1520.15
1575320036.071855,1519.98
1575320036.080307,1518.09
1575320036.088266,1513.31
1575320036.101404,1508.06
1575320036.108816,1504.68
1575320036.117676,1501.86
1575320036.125213,1501.83
1575320036.137331,1503.71
1575320036.145943,1506.41
1575320036.1538959,1506.04
1575320036.166837,1503.43
1575320036.174369,1500.14
1575320036.182914,1500.17
1575320036.190811,1503.91
1575320036.2036061,1508.14
1575320036.210969,1512.2
1575320036.219538,1512.8
1575320036.231627,1510.96
1575320036.2398012,1507.99
1575320036.248047,1508.97
1575320036.2562938,1515.72
1575320036.269038,1530.88
1575320036.2768672,1547.96
1575320036.285436,1560.1
1575320036.297338,1573.87
1575320036.305449,1588.91
1575320036.313705,1603.16
1575320036.321694,1623.04
1575320036.334507,1640.37
1575320036.342346,1649.5
1575320036.350983,1655.37
1575320036.358668,1657.87
1575320036.371076,1658.05
1575320036.379349,1655.44
1575320036.387201,1651.15
1575320036.4002361,1647.97
1575320036.407788,1644.08
1575320036.416996,1639.19
1575320036.424173,1632.05
1575320036.436299,1625.09
1575320036.444843,1616.92
1575320036.453407,1608.16
1575320036.465987,1598.07
1575320036.473245,1580.76
1575320036.481602,1562.35
1575320036.489794,1551.42
1575320036.5024781,1546.03
1575320036.510327,1549.01
1575320036.518921,1554.83
1575320036.530747,1562.76
1575320036.538781,1568.37
1575320036.54713,1570.38
1575320036.555237,1570.49
1575320036.568293,1568.8
1575320036.575777,1566.57
1575320036.584725,1563.29
1575320036.596523,1560.42
1575320036.6043992,1558.82
1575320036.612915,1556.53
1575320036.620747,1552.39
1575320036.63403,1546.63
1575320036.64114,1537.08
1575320036.6501381,1528.66
1575320036.662068,1524.57
1575320036.669795,1523.72
1575320036.678288,1523.52
1575320036.686392,1522.56
1575320036.701012,1520.78
1575320036.706677,1517.64
1575320036.715014,1514.63
1575320036.727587,1513.48
1575320036.736755,1513.77
1575320036.743624,1515.39
1575320036.752495,1516.82
1575320036.7641568,1517.61
1575320036.772212,1517.91
1575320036.780857,1520.84
1575320036.7927082,1531.92
1575320036.801619,1549.65
1575320036.8092642,1564.49
1575320036.817983,1579.77
1575320036.829822,1588.86
1575320036.837719,1591.85
1575320036.84641,1592.48
1575320036.858253,1592.39
1575320036.867239,1592.8
1575320036.874709,1593.78
1575320036.884033,1595.08
1575320036.89539,1595.72
1575320036.903938,1595.34
1575320036.9117389,1594.23
1575320036.923976,1592.96
1575320036.932259,1592.32
1575320036.940201,1593.31
1575320036.94848,1597.31
1575320036.960928,1602.35
1575320036.969713,1608.64
1575320036.977277,1612.51
1575320036.989273,1613.51
1575320036.997782,1613.07
1575320037.005687,1612.66
1575320037.0141618,1612.6
1575320037.026212,1612.11
1575320037.035121,1610.12
1575320037.042859,1607.3
1575320037.054828,1602.66
1575320037.06319,1597.57
1575320037.071349,1593.84
1575320037.079835,1589.75
1575320037.091785,1586.04
1575320037.101421,1583.31
1575320037.1082802,1579.76
1575320037.120363,1576.18
1575320037.128809,1574.24
1575320037.1367521,1574.73
1575320037.14523,1577.75
1575320037.157235,1583.25
1575320037.166524,1588.56
1575320037.173839,1594.57
1575320037.186295,1598.12
1575320037.1944928,1598.56
1575320037.2032142,1596.81
1575320037.211087,1593.43
1575320037.22297,1589.88
1575320037.2313302,1585.69
1575320037.239274,1586.22
1575320037.2521641,1592.63
1575320037.25969,1607.74
1575320037.268493,1625.94
1575320037.276232,1638.79
1575320037.28826,1650.28
1575320037.297036,1656.65
1575320037.304899,1658.76
1575320037.318042,1657.99
1575320037.32528,1654.48
1575320037.334143,1651.18
1575320037.3416178,1648.78
1575320037.3537521,1649.03
1575320037.362265,1650.94
1575320037.370841,1652.11
1575320037.383691,1651.26
1575320037.390938,1646.7
1575320037.399242,1641.75
1575320037.407146,1636.7
1575320037.419768,1635.39
1575320037.4279182,1637.84
1575320037.436797,1643.87
1575320037.448246,1650.02
1575320037.45622,1653.39
1575320037.464629,1654.7
1575320037.472828,1653.45
1575320037.485624,1651.46
1575320037.4933472,1649.4
1575320037.502045,1649.49
1575320037.513748,1651.11
1575320037.5218801,1652.4
1575320037.5302222,1650.16
1575320037.538315,1646.07
1575320037.55096,1639.97
1575320037.5588229,1635.14
1575320037.567758,1633.08
1575320037.579623,1633.03
1575320037.587564,1636.47
1575320037.5958662,1642.18
1575320037.603807,1646.91
1575320037.616121,1651.01
1575320037.624347,1651.96
1575320037.633812,1650.26
1575320037.6449862,1644.29
1575320037.6531699,1635.48
1575320037.6613069,1629.63
1575320037.669824,1626.79
1575320037.6816819,1624.71
1575320037.689885,1618.56
1575320037.699959,1602.77
1575320037.7106292,1581.53
1575320037.7190511,1564.47
1575320037.726646,1545.59
1575320037.735492,1530.34
1575320037.747277,1520.79
1575320037.7552881,1511.19
1575320037.763772,1503.8
1575320037.775868,1500.11
1575320037.7847822,1498.21
1575320037.792358,1498.43
1575320037.80213,1498.17
1575320037.812941,1495.76
1575320037.8212008,1492.12
1575320037.8294332,1489.45
1575320037.841295,1489.68
