1569990104.2100363,4.0
1569990104.2103362,1473.26
1569990104.2106931,1493.67
1569990104.211015,1474.22
1569990104.2432172,1493.73
1569990104.2433918,1483.48
1569990104.243532,1491.72
1569990104.2766871,1488.64
1569990104.277244,1478.68
1569990104.277727,1491.84
1569990104.2780135,1475.07
1569990104.309801,1493.2
1569990104.3100486,1472.5
1569990104.3102543,1488.4
1569990104.343345,1480.61
1569990104.3437314,1482.59
1569990104.3439193,1484.31
1569990104.3441055,1470.98
1569990104.3763707,1489.48
1569990104.3766315,1468.11
1569990104.3768346,1485.37
1569990104.3770208,1473.71
1569990104.4095988,1480.88
1569990104.409769,1478.07
1569990104.409906,1468.62
1569990104.4429972,1482.24
1569990104.4432156,1466.71
1569990104.4434216,1486.77
1569990104.4436295,1467.48
1569990104.4761546,1483.92
1569990104.4762795,1476.89
1569990104.476418,1478.64
1569990104.509453,1480.77
1569990104.5096514,1467.51
1569990104.509799,1485.33
1569990104.509929,1466.54
1569990104.5427823,1484.32
1569990104.5429842,1467.55
1569990104.5431147,1480.06
1569990104.576043,1477.53
1569990104.5762277,1474.45
1569990104.576363,1481.42
1569990104.5764925,1464.79
1569990104.6093826,1484.18
1569990104.6095622,1464.72
1569990104.6097236,1480.5
1569990104.6426866,1473.96
1569990104.642963,1475.89
1569990104.6431963,1478.81
1569990104.6434288,1465.48
1569990104.6759484,1483.18
1569990104.6761024,1464.02
1569990104.6762164,1482.0
1569990104.676314,1465.92
1569990104.7096355,1478.82
1569990104.7099712,1477.04
1569990104.7102768,1473.75
1569990104.742584,1481.62
1569990104.742788,1465.83
1569990104.74293,1485.68
1569990104.7430625,1466.61
1569990104.7758873,1482.05
1569990104.7761,1468.87
1569990104.776247,1476.07
1569990104.809109,1478.48
1569990104.8093126,1470.32
1569990104.8094535,1481.59
1569990104.809589,1460.95
1569990104.8424888,1477.93
1569990104.8427186,1461.68
1569990104.8428936,1473.47
1569990104.875682,1472.02
1569990104.8758454,1468.45
1569990104.8759813,1476.75
1569990104.8761103,1460.56
1569990104.9090474,1480.2
1569990104.9092717,1461.12
1569990104.909481,1477.25
1569990104.9422953,1465.02
1569990104.9425516,1473.27
1569990104.9427826,1477.49
1569990104.9429984,1469.4
1569990104.9756682,1482.0
1569990104.9758725,1462.82
1569990104.9760058,1484.06
1569990104.9761322,1465.97
1569990105.0089903,1476.94
1569990105.0093422,1468.65
1569990105.00959,1471.52
1569990105.042239,1479.96
1569990105.0424502,1467.16
1569990105.0426655,1483.44
1569990105.0428424,1463.86
1569990105.0755868,1479.02
1569990105.0757432,1466.72
1569990105.075883,1473.85
1569990105.1088998,1477.94
1569990105.109106,1469.12
1569990105.1092427,1481.98
1569990105.1093678,1462.79
1569990105.1420531,1483.49
1569990105.1422396,1465.34
1569990105.1423888,1476.4
1569990105.1753323,1468.08
1569990105.1755397,1470.67
1569990105.1756923,1479.32
1569990105.175829,1465.32
1569990105.208776,1481.47
1569990105.2090106,1461.84
1569990105.2091804,1481.51
1569990105.2419145,1464.92
1569990105.242187,1471.57
1569990105.2423968,1469.11
1569990105.2426388,1466.72
1569990105.275233,1480.34
1569990105.2753963,1463.19
1569990105.2755568,1482.37
1569990105.275728,1464.5
1569990105.3085716,1475.64
1569990105.3087878,1468.27
1569990105.3089702,1470.81
1569990105.3421366,1480.55
1569990105.3424716,1466.76
1569990105.3428144,1483.37
1569990105.3431904,1464.9
1569990105.375151,1484.92
1569990105.375373,1468.89
1569990105.3755426,1475.38
1569990105.408456,1473.11
1569990105.4086685,1470.62
1569990105.408825,1484.23
1569990105.4089823,1466.48
1569990105.4417174,1485.23
1569990105.441886,1466.79
1569990105.4420097,1483.07
1569990105.4749894,1470.49
1569990105.475142,1473.02
1569990105.4752727,1476.46
1569990105.4754078,1469.12
1569990105.508275,1485.14
1569990105.5085082,1464.98
1569990105.508677,1483.86
1569990105.541566,1467.1
1569990105.5417507,1472.81
1569990105.5418937,1470.58
1569990105.5420363,1466.93
1569990105.5748413,1480.65
1569990105.574968,1463.07
1569990105.575069,1482.45
1569990105.5751784,1464.81
1569990105.6081836,1481.24
1569990105.608352,1468.66
1569990105.6084976,1470.32
1569990105.6416438,1474.53
1569990105.6418192,1467.07
1569990105.6420708,1483.89
1569990105.642199,1464.2
1569990105.6747777,1484.09
1569990105.6749732,1468.51
1569990105.6751225,1481.92
1569990105.7080188,1474.47
1569990105.7081645,1470.97
1569990105.708281,1479.65
1569990105.7083926,1467.61
1569990105.7414901,1487.4
1569990105.7416303,1466.75
1569990105.741744,1485.06
1569990105.7746823,1472.6
1569990105.7748613,1473.7
1569990105.7750216,1477.47
1569990105.7751615,1467.84
1569990105.8080611,1483.88
1569990105.808281,1463.9
1569990105.8084211,1482.95
1569990105.8412473,1467.21
1569990105.8414404,1479.45
1569990105.8415852,1471.3
1569990105.8417747,1467.32
1569990105.8746176,1475.5
1569990105.8748279,1462.75
1569990105.875004,1482.42
1569990105.8752048,1462.13
1569990105.907845,1481.6
1569990105.9080489,1468.89
1569990105.9081962,1474.54
1569990105.9411666,1466.58
1569990105.9413419,1451.3
1569990105.9414663,1459.27
1569990105.9415812,1438.62
1569990105.9744864,1455.78
1569990105.9747238,1434.33
1569990105.9748573,1450.63
1569990106.0077217,1442.57
1569990106.0080512,1438.27
1569990106.0082543,1447.6
1569990106.0084276,1435.81
1569990106.0410066,1456.35
1569990106.0412521,1435.97
1569990106.0414217,1455.18
1569990106.0742567,1444.98
1569990106.074444,1454.33
1569990106.0746517,1452.73
1569990106.0748084,1445.09
1569990106.1076338,1459.63
1569990106.107826,1444.68
1569990106.1079767,1465.85
1569990106.1408646,1447.12
1569990106.1410453,1465.62
1569990106.1412017,1460.07
1569990106.1413488,1463.65
1569990106.1748364,1466.84
1569990106.175142,1455.82
1569990106.1753817,1474.23
1569990106.1755958,1455.54
1569990106.2074478,1474.8
1569990106.2076004,1459.03
1569990106.2077353,1473.89
1569990106.2407277,1472.19
1569990106.2408507,1463.33
1569990106.2409484,1477.18
1569990106.241072,1461.53
1569990106.2747226,1482.1
1569990106.2750175,1463.08
1569990106.2751873,1479.7
1569990106.3076541,1472.24
1569990106.3079026,1474.77
1569990106.3080573,1477.66
1569990106.3081973,1465.33
1569990106.3406987,1482.87
1569990106.3408573,1464.55
1569990106.3409915,1483.3
1569990106.3738818,1467.39
1569990106.374032,1481.13
1569990106.3741693,1479.02
1569990106.374301,1476.13
1569990106.4073308,1483.49
1569990106.4075024,1467.23
1569990106.407658,1486.52
1569990106.4405758,1466.94
1569990106.4407752,1482.56
1569990106.4409153,1469.65
1569990106.4410462,1478.66
1569990106.4738393,1482.08
1569990106.4739795,1469.03
1569990106.4740944,1487.91
1569990106.474212,1469.27
1569990106.507072,1486.78
1569990106.507199,1470.44
1569990106.5073009,1482.26
1569990106.5403748,1480.37
1569990106.5405488,1476.1
1569990106.5407016,1483.46
1569990106.540839,1466.49
1569990106.5737283,1486.02
1569990106.5739076,1467.0
1569990106.574069,1482.49
1569990106.6070297,1470.13
1569990106.6072533,1477.67
1569990106.6074333,1481.48
1569990106.6075995,1472.66
1569990106.6403441,1484.95
1569990106.6405532,1465.04
1569990106.6407082,1485.47
1569990106.6736548,1467.18
1569990106.6738505,1478.48
1569990106.674072,1470.65
1569990106.67428,1474.24
1569990106.7068455,1483.62
1569990106.706971,1467.63
1569990106.707072,1487.7
1569990106.7401605,1468.33
1569990106.7403483,1484.13
1569990106.7405412,1471.74
1569990106.7407217,1478.81
1569990106.773467,1483.94
1569990106.7736835,1475.37
1569990106.7738771,1488.66
1569990106.7740848,1469.44
1569990106.8069305,1489.96
1569990106.8071268,1472.03
1569990106.8072855,1483.41
1569990106.8400424,1475.48
1569990106.840175,1478.29
1569990106.8402832,1487.17
1569990106.8403842,1474.1
1569990106.873523,1490.66
1569990106.87382,1471.88
1569990106.8740683,1491.68
1569990106.9071844,1475.49
1569990106.9077046,1483.08
1569990106.9079604,1480.46
1569990106.9081917,1478.11
1569990106.9400637,1490.26
1569990106.9403148,1470.58
1569990106.9407103,1491.43
1569990106.9732819,1472.32
1569990106.9735816,1482.36
1569990106.9738572,1474.06
1569990106.9740112,1476.18
1569990107.0066087,1484.93
1569990107.0068624,1470.63
1569990107.0070267,1486.35
1569990107.0398016,1466.24
1569990107.0399911,1486.26
1569990107.0401316,1470.11
1569990107.0402584,1475.76
1569990107.073194,1473.25
1569990107.073376,1470.48
1569990107.0735266,1483.84
1569990107.0736694,1466.21
1569990107.1064584,1485.71
1569990107.1067116,1467.32
1569990107.1068907,1483.73
1569990107.1398618,1470.29
1569990107.1402094,1471.97
1569990107.1405568,1475.33
1569990107.1408794,1467.82
1569990107.17302,1482.62
1569990107.1732178,1460.17
1569990107.1733904,1477.43
1569990107.2063181,1458.39
1569990107.2065408,1461.9
1569990107.206701,1458.86
1569990107.2068427,1454.58
1569990107.2397218,1467.32
1569990107.2399426,1449.67
1569990107.2400892,1469.4
1569990107.2728574,1452.24
1569990107.273006,1468.94
1569990107.273128,1456.92
1569990107.2732437,1458.66
1569990107.3062003,1461.03
1569990107.306442,1452.7
1569990107.306696,1468.44
1569990107.3394315,1449.57
1569990107.3395817,1469.91
1569990107.3396974,1454.86
1569990107.339809,1468.62
1569990107.3727973,1461.31
1569990107.372978,1459.64
1569990107.3731253,1467.71
1569990107.373264,1457.02
1569990107.4060762,1477.29
1569990107.4063234,1460.34
1569990107.4065793,1476.55
1569990107.4394114,1464.78
1569990107.4396691,1467.3
1569990107.439856,1470.89
1569990107.4400191,1464.13
1569990107.47364,1481.57
1569990107.4737675,1463.27
1569990107.4738688,1483.77
1569990107.5059457,1469.21
1569990107.5061657,1483.02
1569990107.5063448,1475.52
1569990107.5065627,1472.46
1569990107.5391722,1480.37
1569990107.5392969,1468.72
1569990107.5393953,1488.54
1569990107.5724795,1468.09
1569990107.5726955,1485.79
1569990107.5757124,1473.04
1569990107.5758433,1481.78
1569990107.6058035,1477.73
1569990107.6059778,1469.68
1569990107.606116,1481.7
1569990107.6390588,1466.13
1569990107.6392128,1485.26
1569990107.639389,1469.36
1569990107.6395712,1481.85
1569990107.6724732,1473.67
1569990107.6727285,1469.72
1569990107.6729293,1477.58
1569990107.6731305,1465.32
1569990107.7057772,1484.45
1569990107.7060308,1463.19
1569990107.7062256,1481.19
1569990107.739077,1469.8
1569990107.7392366,1478.7
1569990107.7393725,1475.5
1569990107.7395282,1467.1
1569990107.772426,1479.85
1569990107.7726479,1463.97
1569990107.772837,1483.23
1569990107.8056426,1463.32
1569990107.8058357,1479.33
1569990107.8059933,1471.07
1569990107.8061323,1473.88
1569990107.8389044,1474.54
1569990107.839168,1461.3
1569990107.8393807,1477.16
1569990107.8721502,1457.33
1569990107.8723557,1474.87
1569990107.8725195,1462.86
1569990107.8727148,1470.42
1569990107.9054768,1466.36
1569990107.9056246,1456.42
1569990107.9057436,1469.28
1569990107.938759,1453.31
1569990107.9389591,1472.27
1569990107.9391077,1452.48
1569990107.939243,1468.44
1569990107.97207,1460.99
1569990107.9722502,1464.28
1569990107.9724007,1466.88
1569990107.9725447,1455.21
1569990108.0053678,1472.41
1569990108.0055606,1453.48
1569990108.005712,1471.06
1569990108.0386965,1455.35
1569990108.0388753,1468.72
1569990108.039085,1465.89
1569990108.039308,1463.95
1569990108.072052,1470.48
1569990108.0722878,1454.93
1569990108.0725052,1473.52
1569990108.1053727,1454.2
1569990108.1056435,1470.12
1569990108.105828,1463.86
1569990108.1059842,1466.14
1569990108.1386063,1467.9
1569990108.138788,1454.73
1569990108.1389205,1471.55
1569990108.1717787,1453.08
1569990108.1719198,1471.34
1569990108.1720204,1455.7
1569990108.1721165,1468.67
1569990108.2052925,1465.94
1569990108.205551,1463.36
1569990108.205792,1470.92
1569990108.2386472,1455.99
1569990108.238834,1474.61
1569990108.2390807,1455.75
1569990108.2394183,1471.58
1569990108.2717927,1458.84
1569990108.2719874,1467.38
1569990108.2721334,1469.49
1569990108.27227,1462.43
1569990108.305142,1473.0
1569990108.3053374,1454.31
1569990108.3054836,1474.15
1569990108.3383105,1456.69
1569990108.3384905,1469.22
1569990108.3386898,1467.49
1569990108.3388338,1465.6
1569990108.3716452,1473.85
1569990108.3717947,1459.06
1569990108.371916,1477.61
1569990108.4049747,1459.46
1569990108.4052048,1475.27
1569990108.405388,1463.08
1569990108.4055614,1471.92
1569990108.4383671,1474.81
1569990108.438751,1467.11
1569990108.4390454,1478.3
1569990108.4715848,1459.75
1569990108.4717793,1479.61
1569990108.4719415,1462.39
1569990108.4721334,1474.6
1569990108.5050774,1466.42
1569990108.505391,1470.67
1569990108.505593,1478.82
1569990108.5382197,1466.85
1569990108.5383778,1481.3
1569990108.5384905,1462.69
1569990108.538655,1482.37
1569990108.5713613,1466.57
1569990108.5715518,1474.02
1569990108.571688,1477.37
1569990108.5718122,1469.2
1569990108.6047275,1480.22
1569990108.6048734,1461.54
1569990108.6049953,1480.9
1569990108.6379614,1463.21
1569990108.638113,1474.14
1569990108.6382346,1465.63
1569990108.6383498,1469.19
1569990108.6713266,1478.05
1569990108.6715002,1465.8
1569990108.6716452,1481.15
1569990108.7045522,1463.47
1569990108.7047577,1482.99
1569990108.7049296,1467.71
1569990108.7051363,1475.53
1569990108.737901,1473.4
1569990108.738066,1472.07
1569990108.7382085,1484.19
1569990108.7710865,1468.06
1569990108.7712476,1486.13
1569990108.7713804,1468.73
1569990108.7715893,1484.93
1569990108.8044934,1472.39
1569990108.8047266,1475.57
1569990108.8049402,1484.49
1569990108.8376741,1470.78
1569990108.8379352,1484.83
1569990108.8381062,1465.72
1569990108.838265,1483.76
1569990108.8710237,1467.3
1569990108.871183,1473.49
1569990108.8713155,1470.44
1569990108.8714468,1467.31
1569990108.9043486,1479.12
1569990108.904548,1462.33
1569990108.9047039,1481.41
1569990108.9377031,1464.88
1569990108.9378898,1481.08
1569990108.9380856,1469.22
1569990108.9382267,1472.03
1569990108.9709296,1475.41
1569990108.9710817,1469.05
1569990108.9712272,1485.06
1569990109.0041592,1467.01
1569990109.0042953,1486.47
1569990109.004409,1472.17
1569990109.0046263,1486.16
1569990109.0375264,1479.37
1569990109.0377705,1477.62
1569990109.0379903,1490.77
1569990109.0709825,1473.84
1569990109.0714316,1491.94
1569990109.071697,1474.03
1569990109.0719006,1488.91
1569990109.1041012,1476.82
1569990109.1043713,1478.66
1569990109.1045902,1481.34
1569990109.1374254,1473.04
1569990109.1376796,1488.59
1569990109.137843,1469.68
1569990109.1380203,1488.89
1569990109.1707885,1473.93
1569990109.1711264,1486.11
1569990109.1714222,1478.6
1569990109.171654,1475.48
1569990109.2042406,1483.61
1569990109.2045379,1472.54
1569990109.2046597,1491.18
1569990109.2376387,1471.48
1569990109.2379827,1489.46
1569990109.2381947,1477.75
1569990109.2383752,1486.06
1569990109.2705603,1482.74
1569990109.2707052,1474.84
1569990109.270814,1492.19
1569990109.3038757,1474.13
1569990109.3040395,1493.66
1569990109.3041499,1479.52
1569990109.3042562,1491.31
1569990109.337281,1483.44
1569990109.337589,1479.22
1569990109.3378491,1487.59
1569990109.3703582,1475.28
1569990109.3704917,1493.7
1569990109.3706262,1473.26
1569990109.3707232,1490.91
1569990109.4037917,1479.56
1569990109.4039774,1486.84
1569990109.4041321,1484.14
1569990109.4370246,1475.57
1569990109.4372306,1488.77
1569990109.437366,1473.58
1569990109.437559,1492.56
1569990109.4702992,1473.8
1569990109.4704502,1489.67
1569990109.470624,1482.84
1569990109.4707487,1485.41
1569990109.5038965,1487.73
1569990109.5042334,1475.69
1569990109.5043907,1494.94
1569990109.5369577,1475.3
1569990109.537224,1493.2
1569990109.537449,1482.68
1569990109.5376265,1489.76
1569990109.5702677,1487.51
1569990109.5704384,1478.14
1569990109.570623,1492.12
1569990109.6035125,1476.7
1569990109.6036756,1494.5
1569990109.6038003,1474.97
1569990109.603919,1491.22
1569990109.6368387,1485.39
1569990109.6370404,1487.37
1569990109.637209,1490.15
1569990109.67007,1476.9
1569990109.6703455,1493.74
1569990109.6706357,1475.15
1569990109.6708322,1492.57
1569990109.7037556,1476.31
1569990109.7040436,1487.66
1569990109.7042694,1486.74
1569990109.736648,1484.21
1569990109.736892,1492.46
1569990109.737081,1476.83
1569990109.7372773,1494.86
1569990109.7700462,1476.38
1569990109.7703333,1492.02
1569990109.7706165,1485.63
1569990109.7710776,1486.26
1569990109.803316,1488.8
1569990109.803469,1474.97
1569990109.8035882,1491.55
1569990109.8365407,1472.63
1569990109.8368623,1489.91
1569990109.8372445,1474.39
1569990109.8375292,1485.77
1569990109.8700073,1484.31
1569990109.8702834,1480.76
1569990109.870583,1489.08
1569990109.9031956,1473.41
1569990109.9034104,1492.34
1569990109.903694,1473.93
1569990109.9039705,1488.96
1569990109.9364455,1476.94
1569990109.9366019,1483.65
1569990109.9367228,1487.18
1569990109.9700778,1479.07
1569990109.9704041,1490.74
1569990109.9705844,1472.07
1569990109.9707134,1489.67
1569990110.0032551,1474.33
1569990110.0036328,1484.42
1569990110.0039396,1483.01
1569990110.03627,1479.29
1569990110.0365396,1487.78
1569990110.0367007,1471.48
1569990110.0368493,1490.63
1569990110.0695846,1472.75
1569990110.0697753,1488.44
1569990110.0699196,1476.97
1569990110.0700853,1484.44
1569990110.1032467,1488.65
1569990110.1035326,1479.53
1569990110.1036847,1491.34
1569990110.1362412,1472.1
1569990110.1365016,1491.65
1569990110.1366622,1473.17
1569990110.1367874,1482.69
1569990110.1696837,1474.08
1569990110.170111,1474.37
1569990110.1702762,1481.14
1569990110.202733,1466.4
1569990110.2028973,1480.68
1569990110.203029,1460.02
1569990110.2031558,1471.88
1569990110.2368305,1458.76
1569990110.2371895,1462.23
1569990110.237344,1464.73
1569990110.2693844,1454.01
1569990110.269562,1465.69
1569990110.26972,1446.25
1569990110.2699232,1465.21
1569990110.3028517,1446.9
1569990110.3031514,1456.36
1569990110.303375,1448.95
1569990110.3362796,1450.1
1569990110.3367631,1459.52
1569990110.3369427,1444.95
1569990110.3371067,1460.56
1569990110.36924,1442.47
1569990110.3694112,1461.88
1569990110.369553,1448.03
1569990110.3696907,1455.82
1569990110.4025967,1456.05
1569990110.4028971,1454.07
1569990110.4031124,1468.4
1569990110.4358742,1451.89
1569990110.4360733,1472.08
1569990110.4362586,1455.76
1569990110.4364212,1466.19
1569990110.4691663,1461.08
1569990110.469351,1462.82
1569990110.4694996,1473.21
1569990110.502609,1459.0
1569990110.5028253,1475.04
1569990110.503031,1456.77
1569990110.5031738,1474.68
1569990110.5358207,1459.81
1569990110.5360448,1465.05
1569990110.5362196,1464.26
1569990110.569079,1460.72
1569990110.5695472,1474.9
1569990110.5698724,1457.41
1569990110.5701478,1476.52
1569990110.6027188,1459.71
1569990110.6029177,1475.51
1569990110.6030464,1465.82
1569990110.635729,1467.5
1569990110.6360865,1471.71
1569990110.6363356,1463.45
1569990110.6365538,1481.47
1569990110.6689134,1462.66
1569990110.6690748,1481.83
1569990110.6692097,1467.66
1569990110.6693404,1472.79
1569990110.702241,1473.2
1569990110.7024097,1469.11
1569990110.702618,1483.34
1569990110.735839,1465.38
1569990110.736472,1483.78
1569990110.736803,1467.18
1569990110.7370796,1482.23
1569990110.7688844,1471.89
1569990110.7690487,1471.77
1569990110.7691638,1476.2
1569990110.8021266,1466.72
1569990110.8023417,1484.42
1569990110.8024964,1465.09
1569990110.802708,1484.39
1569990110.8354852,1470.82
1569990110.8357878,1482.53
1569990110.8360665,1476.54
1569990110.8686533,1472.16
1569990110.868873,1482.4
1569990110.8690615,1469.41
1569990110.869187,1488.7
1569990110.9020798,1468.95
1569990110.9022958,1487.41
1569990110.902431,1476.98
1569990110.9352965,1476.17
1569990110.9355392,1481.19
1569990110.9357283,1471.2
1569990110.9359057,1489.46
1569990110.9685812,1470.07
1569990110.9688416,1488.84
1569990110.9690711,1475.04
1569990110.9693475,1485.97
1569990111.0019343,1480.48
1569990111.0021865,1474.51
1569990111.0024107,1484.45
1569990111.0352516,1471.04
1569990111.0354931,1490.04
1569990111.0356581,1470.24
1569990111.0357802,1488.1
1569990111.0684948,1477.97
1569990111.0686657,1483.78
1569990111.0688095,1482.25
1569990111.1017478,1471.78
1569990111.1020067,1486.26
1569990111.1021662,1469.3
1569990111.1023018,1486.95
1569990111.1350496,1468.39
1569990111.1352372,1483.33
1569990111.1353633,1478.07
1569990111.1684024,1471.14
1569990111.1686895,1481.42
1569990111.1689258,1466.78
1569990111.169149,1486.19
1569990111.2017236,1467.1
1569990111.2019925,1485.03
1569990111.2022188,1475.97
1569990111.2348893,1481.33
1569990111.2350843,1480.25
1569990111.235229,1468.94
1569990111.2353494,1483.92
1569990111.2684357,1466.3
1569990111.2687893,1483.88
1569990111.2691221,1465.7
1569990111.2693841,1480.24
1569990111.3016355,1475.56
1569990111.3018477,1475.84
1569990111.3020265,1479.76
1569990111.3349178,1465.66
1569990111.3352325,1483.93
1569990111.3357127,1466.48
1569990111.336002,1484.85
1569990111.368125,1470.41
1569990111.3682811,1480.96
1569990111.3683867,1480.41
1569990111.40141,1469.12
1569990111.401589,1485.03
1569990111.4017708,1466.69
1569990111.401882,1483.57
1569990111.4347372,1466.17
1569990111.4349823,1479.83
1569990111.4352012,1473.58
1569990111.4679503,1472.39
1569990111.4681876,1476.4
1569990111.468379,1461.44
1569990111.4685624,1479.48
1569990111.5013433,1461.87
1569990111.5015488,1479.33
1569990111.501715,1464.77
1569990111.534784,1475.31
1569990111.535294,1476.55
1569990111.5357108,1471.7
1569990111.5359397,1481.62
1569990111.5679824,1463.77
1569990111.568282,1483.42
1569990111.5686429,1465.38
1569990111.5689793,1479.37
1569990111.601249,1468.63
1569990111.6015334,1474.29
1569990111.6017826,1479.75
1569990111.634592,1465.07
1569990111.6348453,1483.94
1569990111.6350222,1465.65
1569990111.635183,1482.34
1569990111.66774,1468.44
1569990111.6679125,1477.88
1569990111.6680427,1479.03
1569990111.7010014,1473.05
1569990111.7011826,1482.97
1569990111.701343,1466.53
1569990111.7014587,1489.88
1569990111.734332,1478.86
1569990111.7345903,1501.26
1569990111.7347329,1498.98
1569990111.7676575,1515.26
1569990111.7678132,1532.64
1569990111.7679293,1531.0
1569990111.7680376,1555.38
1569990111.8009493,1545.99
1569990111.8011832,1572.23
1569990111.8013432,1561.92
1569990111.8342953,1576.4
1569990111.8347867,1573.77
1569990111.8351076,1575.49
1569990111.8353665,1585.04
1569990111.8674974,1564.27
1569990111.8676782,1581.56
1569990111.867823,1559.83
1569990111.8679514,1568.12
1569990111.9008749,1553.91
1569990111.9011436,1553.45
1569990111.901406,1555.17
1569990111.9341042,1540.53
1569990111.93431,1549.82
1569990111.9347417,1526.1
1569990111.9349625,1541.9
1569990111.9673717,1519.85
1569990111.9675343,1523.99
1569990111.9676592,1515.97
1569990112.0006251,1511.75
1569990112.000771,1518.84
1569990112.0008848,1500.38
1569990112.0009813,1515.0
1569990112.0340326,1493.54
1569990112.034282,1507.94
1569990112.0344646,1490.66
1569990112.0672836,1492.45
1569990112.067487,1491.02
1569990112.067631,1483.57
1569990112.067771,1495.39
1569990112.1006384,1474.48
1569990112.1008985,1492.42
1569990112.101079,1473.16
1569990112.1339166,1479.54
1569990112.1341794,1473.93
1569990112.1343822,1470.59
1569990112.1346574,1479.65
1569990112.1671696,1462.24
1569990112.1674323,1479.3
1569990112.167603,1461.07
1569990112.1677597,1477.46
1569990112.2004943,1462.64
1569990112.2006927,1465.77
1569990112.2008526,1466.5
1569990112.23374,1460.11
1569990112.233991,1474.07
1569990112.234211,1454.89
1569990112.2344246,1472.87
1569990112.2670517,1455.49
1569990112.26743,1468.85
1569990112.2675788,1457.62
1569990112.3002682,1456.0
1569990112.3004267,1461.9
1569990112.3005552,1449.76
1569990112.300675,1461.42
1569990112.3338823,1432.96
1569990112.3342133,1439.2
1569990112.3344586,1410.98
1569990112.3669531,1398.65
1569990112.3671904,1388.3
1569990112.3673532,1367.04
1569990112.367487,1369.32
1569990112.4002233,1341.77
1569990112.400376,1351.23
1569990112.4004855,1328.56
1569990112.433491,1339.35
1569990112.4336638,1329.19
1569990112.433792,1328.23
1569990112.433943,1337.08
1569990112.4668963,1330.02
1569990112.4670784,1353.35
1569990112.4672213,1337.93
1569990112.4673574,1362.41
1569990112.5002558,1356.45
1569990112.5005722,1372.26
1569990112.500831,1374.63
1569990112.5334513,1373.51
1569990112.533725,1390.9
1569990112.5339508,1386.76
1569990112.5342035,1417.92
1569990112.5669084,1414.3
1569990112.5673873,1435.92
1569990112.56769,1435.84
1569990112.5998862,1439.42
1569990112.6000159,1450.11
1569990112.60014,1443.44
1569990112.6002383,1466.42
1569990112.6333256,1448.65
1569990112.633492,1470.08
1569990112.6336186,1460.85
1569990112.6666188,1471.88
1569990112.6668339,1469.65
1569990112.666957,1463.23
1569990112.6670852,1475.83
1569990112.6999161,1462.6
1569990112.700133,1483.54
1569990112.7002964,1464.66
1569990112.7331238,1482.52
1569990112.73337,1475.17
1569990112.7335563,1480.09
1569990112.7337406,1480.94
1569990112.766466,1470.56
1569990112.7667682,1487.89
1569990112.7669733,1471.27
1569990112.7671247,1490.21
1569990112.7998462,1478.51
1569990112.8000798,1487.57
1569990112.8002667,1483.74
1569990112.8331,1475.63
1569990112.8334396,1488.22
1569990112.8337278,1472.92
1569990112.8339899,1491.99
1569990112.8663824,1472.18
1569990112.8666875,1488.89
1569990112.8669093,1481.23
1569990112.8997138,1485.17
1569990112.899931,1486.77
1569990112.9001963,1474.95
1569990112.9003592,1491.88
1569990112.9328744,1474.19
1569990112.9330156,1492.52
1569990112.9331279,1476.03
1569990112.9662595,1489.86
1569990112.9665577,1486.28
1569990112.9667192,1484.46
1569990112.9668624,1489.66
1569990112.999511,1474.24
1569990112.9997694,1492.82
1569990112.9999561,1474.01
1569990113.0328224,1490.28
1569990113.0329838,1482.53
1569990113.0330896,1485.8
1569990113.0332036,1487.14
1569990113.0661716,1474.38
1569990113.0663352,1490.84
1569990113.0664635,1472.79
1569990113.0666254,1491.62
1569990113.0994532,1476.0
1569990113.0996356,1489.57
1569990113.0998564,1486.5
1569990113.1326666,1484.77
1569990113.1328833,1492.02
1569990113.13306,1477.21
1569990113.1332204,1495.71
1569990113.1660736,1476.74
1569990113.1664832,1493.33
1569990113.166919,1480.05
1569990113.1992762,1489.15
1569990113.1995585,1490.76
1569990113.1998076,1483.89
1569990113.2000487,1494.39
1569990113.2326846,1476.25
1569990113.2329226,1497.01
1569990113.233074,1479.98
1569990113.2659235,1492.8
1569990113.266221,1489.93
1569990113.2664475,1487.96
1569990113.266729,1494.68
1569990113.2993162,1478.9
1569990113.2996175,1497.92
1569990113.299849,1478.78
1569990113.3325138,1494.51
1569990113.3327134,1481.36
1569990113.3328667,1489.55
1569990113.3330042,1491.21
1569990113.3657975,1483.1
1569990113.3659866,1494.03
1569990113.3661268,1478.31
1569990113.3662553,1502.89
1569990113.3990614,1492.2
1569990113.3992615,1512.99
1569990113.3994439,1511.29
1569990113.4323452,1526.29
1569990113.432553,1544.91
1569990113.432737,1541.57
1569990113.4329226,1566.15
1569990113.465673,1555.19
1569990113.465874,1580.27
1569990113.4660354,1568.84
1569990113.4989629,1580.38
1569990113.4992828,1583.94
1569990113.4995675,1576.06
1569990113.4998555,1585.41
1569990113.5322692,1563.54
1569990113.532531,1581.04
1569990113.5327427,1558.62
1569990113.5655363,1565.68
1569990113.5658007,1552.78
1569990113.5660126,1552.04
1569990113.5662017,1555.45
1569990113.598875,1539.1
1569990113.5990937,1549.16
1569990113.599301,1525.26
1569990113.632071,1541.5
1569990113.6322505,1520.97
1569990113.632417,1524.5
1569990113.6325278,1517.62
1569990113.665497,1512.16
1569990113.6660023,1519.39
1569990113.666365,1499.88
1569990113.6667297,1515.69
1569990113.698878,1495.73
1569990113.6992068,1510.46
1569990113.6994607,1493.89
1569990113.7319043,1493.88
1569990113.7320611,1498.74
1569990113.7322042,1483.13
1569990113.7323282,1495.12
1569990113.7652476,1473.29
1569990113.7654176,1490.48
1569990113.7655687,1471.99
1569990113.7985725,1477.33
1569990113.7988493,1472.22
1569990113.7990906,1468.29
1569990113.7993236,1479.15
1569990113.8318517,1461.38
1569990113.83201,1478.94
1569990113.8321383,1459.71
1569990113.8654363,1475.17
1569990113.865825,1460.73
1569990113.8660355,1462.42
1569990113.866239,1463.85
1569990113.8986466,1456.02
1569990113.8988774,1470.72
1569990113.8990474,1451.69
1569990113.9317324,1470.5
1569990113.9318936,1454.21
1569990113.9320004,1468.0
1569990113.9320989,1458.81
1569990113.9651203,1456.16
1569990113.965324,1468.7
1569990113.965479,1451.78
1569990113.9656057,1470.49
1569990113.998355,1452.6
1569990113.998493,1468.53
1569990113.9986482,1455.22
1569990114.031662,1457.08
1569990114.031873,1459.12
1569990114.0320675,1451.29
1569990114.0323153,1466.96
1569990114.0650055,1447.65
1569990114.0652795,1466.96
1569990114.0655403,1451.92
1569990114.0982354,1465.71
1569990114.098616,1454.54
1569990114.098917,1444.82
1569990114.0992165,1445.05
1569990114.1317065,1422.88
1569990114.132042,1429.38
1569990114.1323552,1398.38
1569990114.1649334,1404.05
1569990114.1653533,1379.96
1569990114.1656985,1380.66
1569990114.1659615,1368.03
1569990114.1981156,1354.21
1569990114.1982923,1367.54
1569990114.198439,1347.99
1569990114.231314,1367.87
1569990114.2315283,1354.29
1569990114.231708,1369.98
1569990114.2318652,1365.55
1569990114.2646773,1366.52
1569990114.2648282,1378.53
1569990114.2649467,1371.88
1569990114.2650607,1396.68
1569990114.2979903,1380.38
1569990114.2981794,1403.72
1569990114.2983527,1396.66
1569990114.33129,1409.06
1569990114.3314734,1409.16
1569990114.3316092,1404.72
1569990114.331727,1420.95
1569990114.364731,1410.19
1569990114.3648667,1433.78
1569990114.3649669,1417.09
1569990114.3977652,1437.96
1569990114.397891,1434.25
1569990114.3979936,1440.44
1569990114.3980923,1444.91
1569990114.4312167,1436.0
1569990114.4313598,1458.53
1569990114.4314744,1440.24
1569990114.464414,1461.09
1569990114.4646401,1452.03
1569990114.464776,1461.91
1569990114.4648905,1460.44
1569990114.4976716,1453.83
1569990114.497807,1468.61
1569990114.4979138,1454.65
1569990114.5310516,1475.33
1569990114.5312202,1456.95
1569990114.5313215,1474.93
1569990114.5314174,1469.25
1569990114.5644233,1473.88
1569990114.5646763,1476.68
1569990114.5648563,1465.09
1569990114.565015,1482.54
1569990114.5977886,1464.88
1569990114.5980437,1484.47
1569990114.5981865,1468.87
1569990114.6309829,1482.68
1569990114.6314332,1480.53
1569990114.6317146,1479.64
1569990114.6319034,1486.61
1569990114.6642566,1470.82
1569990114.6645072,1489.73
1569990114.6647267,1470.53
1569990114.6975327,1486.93
1569990114.6977847,1479.58
1569990114.69799,1482.62
1569990114.6981943,1484.87
1569990114.730838,1472.24
1569990114.731029,1489.33
1569990114.7311916,1470.89
1569990114.764142,1489.32
1569990114.76429,1473.28
1569990114.7643998,1486.19
1569990114.7645211,1483.04
1569990114.79741,1480.73
1569990114.7975566,1488.07
1569990114.7976649,1472.45
1569990114.8307886,1491.78
1569990114.8310137,1473.35
1569990114.8311684,1489.74
1569990114.8313134,1477.1
1569990114.8639958,1485.83
1569990114.864153,1487.16
1569990114.86427,1479.96
1569990114.8643832,1490.75
1569990114.8973756,1472.07
1569990114.8976476,1490.88
1569990114.897891,1475.22
1569990114.930873,1487.97
1569990114.9311142,1485.69
1569990114.931436,1483.36
1569990114.9316537,1491.17
1569990114.9640002,1476.0
1569990114.9643123,1495.16
1569990114.9645507,1476.35
1569990114.9972456,1493.03
1569990114.9975128,1480.3
1569990114.997675,1489.74
1569990114.9978275,1492.67
1569990115.030606,1485.31
1569990115.0309236,1496.71
1569990115.0312166,1477.69
1569990115.063875,1498.15
1569990115.064188,1479.87
1569990115.0645463,1491.78
1569990115.064946,1482.75
1569990115.0970821,1486.68
1569990115.0972683,1494.28
1569990115.097388,1482.01
1569990115.1303422,1497.31
1569990115.1306694,1478.38
1569990115.1308572,1494.03
1569990115.1310484,1481.38
1569990115.1635695,1489.0
1569990115.1636977,1491.26
1569990115.163802,1482.64
1569990115.1639032,1493.46
1569990115.1970522,1474.1
1569990115.1973524,1494.52
1569990115.1975245,1476.35
1569990115.2302728,1487.71
1569990115.2309973,1478.62
1569990115.2312317,1482.66
1569990115.2313752,1491.09
1569990115.263649,1478.55
1569990115.263915,1493.73
1569990115.2641609,1474.52
1569990115.2968907,1493.78
1569990115.2972326,1476.71
1569990115.3000927,1484.01
1569990115.3002644,1480.01
1569990115.3303423,1478.31
1569990115.3308558,1491.07
1569990115.331147,1475.03
1569990115.36336,1494.55
1569990115.3635774,1476.92
1569990115.3637655,1488.39
1569990115.3639462,1479.91
1569990115.39673,1482.91
1569990115.3969104,1491.19
1569990115.3970213,1477.73
1569990115.4302,1492.1
1569990115.4304707,1472.42
1569990115.4306765,1491.37
1569990115.4307907,1474.38
1569990115.4635422,1481.37
1569990115.4637778,1478.04
1569990115.463954,1476.1
1569990115.4641075,1488.24
1569990115.4966254,1471.52
1569990115.4968057,1490.77
1569990115.4969764,1473.17
1569990115.5300548,1489.55
1569990115.5302713,1476.29
1569990115.530405,1479.32
1569990115.530587,1481.16
1569990115.56348,1473.99
1569990115.5637643,1489.03
1569990115.5640411,1470.19
1569990115.596514,1489.46
1569990115.5967226,1473.14
1569990115.5968747,1479.9
1569990115.5970275,1476.88
1569990115.6298652,1473.93
1569990115.6302142,1486.14
1569990115.6305003,1469.26
1569990115.6631129,1487.53
1569990115.663368,1468.98
1569990115.6635504,1484.86
1569990115.66371,1471.54
1569990115.6963918,1474.32
1569990115.6966279,1477.1
1569990115.6968093,1470.61
1569990115.7296662,1486.38
1569990115.7299244,1467.51
1569990115.7301016,1488.5
1569990115.7303226,1477.58
1569990115.7628617,1496.83
1569990115.7630584,1496.29
1569990115.7633402,1503.08
1569990115.7635908,1518.19
1569990115.7962847,1517.84
1569990115.7964768,1547.24
1569990115.7966146,1534.7
1569990115.8296387,1562.29
1569990115.8298428,1556.84
1569990115.8300881,1564.96
1569990115.8303213,1570.92
1569990115.8630848,1565.91
1569990115.8635285,1581.6
1569990115.8639667,1561.42
1569990115.896071,1578.1
1569990115.8964047,1558.57
1569990115.8968005,1568.38
1569990115.8972042,1554.89
1569990115.9296148,1546.75
1569990115.929953,1549.15
1569990115.9302175,1532.86
1569990115.962688,1546.27
1569990115.9628983,1521.5
1569990115.9630744,1533.93
1569990115.9632547,1516.38
1569990115.9959447,1522.16
1569990115.9961412,1512.68
1569990115.9965465,1500.12
1569990116.0292897,1507.88
1569990116.0294905,1488.78
1569990116.029611,1503.42
1569990116.0297096,1480.0
1569990116.06279,1493.44
1569990116.063086,1481.76
1569990116.0633442,1476.29
1569990116.0635412,1481.66
1569990116.0959198,1468.28
1569990116.09621,1485.46
1569990116.0964017,1464.26
1569990116.1291265,1481.01
1569990116.129271,1467.07
1569990116.12938,1475.05
1569990116.129481,1468.79
1569990116.1624994,1458.79
1569990116.1629148,1468.99
1569990116.1630664,1452.85
1569990116.1958494,1470.94
1569990116.1961496,1450.08
1569990116.1963701,1465.79
1569990116.1965961,1456.62
1569990116.229111,1460.57
1569990116.2293887,1460.51
1569990116.2296414,1448.09
1569990116.2624106,1463.3
1569990116.2628062,1444.32
1569990116.2630348,1462.34
1569990116.2631912,1445.45
1569990116.2958982,1458.92
1569990116.2961917,1454.42
1569990116.2966042,1446.43
1569990116.3291547,1458.62
1569990116.3295078,1443.9
1569990116.3298142,1463.18
1569990116.3300757,1443.32
1569990116.3622978,1459.81
1569990116.3625014,1451.38
1569990116.362733,1454.61
1569990116.3628602,1455.09
1569990116.3956122,1443.38
1569990116.3959358,1459.67
1569990116.396187,1441.89
1569990116.428924,1460.0
1569990116.429202,1443.08
1569990116.4294076,1456.38
1569990116.429578,1451.9
1569990116.4622388,1450.72
1569990116.462473,1456.33
1569990116.4627018,1441.78
1569990116.4955227,1460.2
1569990116.4957852,1441.76
1569990116.495956,1457.85
1569990116.4961174,1443.46
1569990116.5290272,1453.1
1569990116.5294573,1453.96
1569990116.5297256,1442.42
1569990116.5620174,1459.06
1569990116.5622916,1441.58
1569990116.5625603,1460.44
1569990116.5627942,1444.44
1569990116.595413,1458.74
1569990116.5956233,1456.1
1569990116.595764,1454.87
1569990116.6285286,1461.52
1569990116.6288157,1447.66
1569990116.6290503,1466.49
1569990116.629279,1448.85
1569990116.6620002,1466.21
1569990116.6622338,1452.97
1569990116.6624193,1462.86
1569990116.6626043,1464.61
1569990116.6953676,1459.67
1569990116.6956127,1469.23
1569990116.6957843,1445.91
1569990116.728624,1459.56
1569990116.728787,1432.23
1569990116.728891,1433.21
1569990116.7289867,1413.08
1569990116.761978,1405.14
1569990116.762261,1399.94
1569990116.762392,1374.66
1569990116.7951753,1386.26
1569990116.7954562,1360.97
1569990116.7956822,1372.66
1569990116.7959766,1357.7
1569990116.8286638,1366.55
1569990116.8289475,1370.07
1569990116.829234,1365.76
1569990116.8619554,1380.64
1569990116.8622634,1367.3
1569990116.8624003,1391.02
1569990116.8626533,1378.72
1569990116.8950238,1396.71
1569990116.8952458,1390.93
1569990116.8954268,1400.19
1569990116.928308,1412.16
1569990116.928625,1405.49
1569990116.9288707,1424.98
1569990116.9291046,1411.09
1569990116.9615414,1434.81
1569990116.9617252,1423.22
1569990116.9618335,1436.44
1569990116.961934,1435.39
1569990116.994882,1438.95
1569990116.9950805,1452.79
1569990116.9952111,1437.62
1569990117.0282,1460.15
1569990117.0285556,1445.0
1569990117.0287201,1459.49
1569990117.0288432,1451.87
1569990117.061546,1458.1
1569990117.0619233,1467.21
1569990117.0621634,1457.34
1569990117.0950618,1473.75
1569990117.0953338,1457.38
1569990117.095534,1479.12
1569990117.095703,1465.9
1569990117.1282332,1476.46
1569990117.1285348,1473.74
1569990117.1287787,1474.8
1569990117.1613364,1487.44
1569990117.1616378,1472.82
1569990117.1620867,1492.2
1569990117.1624308,1476.13
1569990117.1945448,1493.29
1569990117.1947587,1479.13
1569990117.194956,1483.07
1569990117.2281759,1484.21
1569990117.228552,1478.8
1569990117.2288716,1493.4
1569990117.2291808,1475.02
1569990117.261075,1495.0
1569990117.2613647,1479.43
1569990117.2615097,1487.76
1569990117.2616782,1483.88
1569990117.2944367,1482.92
1569990117.2948518,1494.46
1569990117.2950704,1478.97
1569990117.327985,1497.16
1569990117.3282642,1479.31
1569990117.3284776,1496.07
1569990117.328643,1483.02
1569990117.3610532,1488.05
1569990117.3612416,1490.33
1569990117.3613915,1485.32
1569990117.3946474,1500.72
1569990117.3950891,1482.87
1569990117.3954635,1501.79
1569990117.3959186,1485.33
1569990117.42766,1499.63
1569990117.4279172,1490.57
1569990117.4281952,1489.82
1569990117.461197,1495.63
1569990117.4615984,1485.85
1569990117.461878,1504.26
1569990117.4621186,1486.32
1569990117.4942148,1502.82
1569990117.4944892,1488.86
1569990117.495094,1491.49
1569990117.5275023,1492.93
1569990117.52779,1486.73
1569990117.5281777,1501.45
1569990117.528363,1482.82
1569990117.5608845,1502.24
1569990117.5625923,1487.09
1569990117.562996,1501.14
1569990117.5635762,1491.53
1569990117.5949233,1489.58
1569990117.595268,1495.41
1569990117.5955098,1485.21
1569990117.6273754,1503.77
1569990117.6275737,1484.08
1569990117.6277442,1502.26
1569990117.6278992,1489.02
1569990117.660656,1499.16
1569990117.6608026,1494.28
1569990117.6609514,1488.17
1569990117.69394,1499.2
1569990117.6941442,1485.47
1569990117.694335,1504.74
1569990117.6946793,1489.26
1569990117.7272427,1503.37
1569990117.7274053,1494.55
1569990117.7275212,1491.92
1569990117.7604766,1497.14
1569990117.7606301,1485.51
1569990117.7607589,1503.49
1569990117.7608824,1482.74
1569990117.7940772,1499.93
1569990117.7943676,1486.54
1569990117.7949502,1496.27
1569990117.8271182,1491.51
1569990117.8273337,1484.55
1569990117.8275383,1495.39
1569990117.8277488,1481.21
1569990117.8603702,1500.61
1569990117.8605304,1481.07
1569990117.8606553,1497.86
1569990117.8607936,1487.87
1569990117.8938293,1491.52
1569990117.894083,1490.22
1569990117.8943074,1478.64
1569990117.9270864,1493.96
1569990117.9272735,1476.28
1569990117.9274518,1493.22
1569990117.9276443,1480.26
1569990117.9604442,1490.17
1569990117.9606454,1486.3
1569990117.9607637,1478.93
1569990117.9936285,1489.84
1569990117.993845,1475.22
1569990117.9940305,1494.22
1569990117.9942012,1473.81
1569990118.0268867,1490.32
1569990118.02703,1480.96
1569990118.0271447,1484.39
1569990118.0601695,1484.12
1569990118.060417,1473.04
1569990118.0605924,1489.09
1569990118.0607579,1471.93
1569990118.093483,1490.36
1569990118.0936565,1473.48
1569990118.093792,1488.26
1569990118.126758,1484.12
1569990118.1270194,1483.96
1569990118.1272337,1488.82
1569990118.1274405,1474.69
1569990118.1600199,1493.07
1569990118.1601593,1474.95
1569990118.160294,1492.19
1569990118.1604044,1483.2
1569990118.193503,1487.05
1569990118.1938055,1487.12
1569990118.1940703,1475.08
1569990118.2266104,1490.49
1569990118.2267706,1472.4
1569990118.226892,1490.31
1569990118.227005,1473.39
1569990118.2599976,1487.58
1569990118.2602115,1483.57
1569990118.2603965,1483.36
1569990118.293185,1488.76
1569990118.293316,1473.23
1569990118.2934198,1491.36
1569990118.293517,1475.45
1569990118.3264773,1498.48
1569990118.3266656,1490.52
1569990118.3267667,1509.62
1569990118.3598156,1521.23
1569990118.3600173,1525.76
1569990118.3601716,1547.09
1569990118.360315,1540.78
1569990118.3931184,1568.29
1569990118.3932767,1557.47
1569990118.3934298,1576.28
1569990118.4263897,1574.91
1569990118.4267325,1574.85
1569990118.4269922,1579.53
1569990118.4272223,1562.71
1569990118.4597874,1578.11
1569990118.4600573,1555.35
1569990118.4602947,1567.68
1569990118.4605086,1549.47
1569990118.493204,1554.51
1569990118.493533,1550.6
1569990118.493752,1541.42
1569990118.5262978,1545.82
1569990118.5264714,1522.67
1569990118.5266242,1538.5
1569990118.526737,1515.61
1569990118.5595942,1524.5
1569990118.5598032,1510.51
1569990118.559911,1512.18
1569990118.5928943,1513.97
1569990118.593183,1501.16
1569990118.5933964,1511.36
1569990118.593584,1489.02
1569990118.6264582,1506.69
1569990118.626803,1487.69
1569990118.6269524,1496.67
1569990118.6598504,1497.05
1569990118.6601543,1490.65
1569990118.6603699,1499.31
1569990118.660664,1479.57
1569990118.6928327,1498.23
1569990118.6931264,1478.58
1569990118.6933901,1490.5
1569990118.7259862,1478.71
1569990118.7261732,1482.34
1569990118.7262979,1486.34
1569990118.7264178,1474.19
1569990118.759353,1486.23
1569990118.7596347,1465.74
1569990118.759831,1484.03
1569990118.759994,1464.72
1569990118.792671,1472.94
1569990118.792875,1466.83
1569990118.7930708,1465.86
1569990118.825983,1474.26
1569990118.8262625,1458.16
1569990118.826547,1474.27
1569990118.82685,1455.66
1569990118.8593102,1473.26
1569990118.8595598,1457.75
1569990118.8597724,1462.25
1569990118.8924875,1467.31
1569990118.8926544,1456.04
1569990118.8927898,1469.57
1569990118.8929172,1449.8
1569990118.9259927,1469.23
1569990118.92629,1451.17
1569990118.9264941,1459.78
1569990118.9591262,1454.71
1569990118.9593372,1454.95
1569990118.9594984,1466.2
1569990118.9596303,1450.36
1569990118.9924374,1464.52
1569990118.9926667,1439.41
1569990118.9928756,1449.5
1569990119.0256734,1423.57
1569990119.0258918,1415.61
1569990119.026068,1405.16
1569990119.0262334,1387.35
1569990119.0589778,1389.67
1569990119.0591908,1362.29
1569990119.0593376,1372.03
1569990119.059519,1348.48
1569990119.0924208,1359.76
1569990119.0926986,1347.21
1569990119.0929537,1346.39
1569990119.1257818,1358.88
1569990119.1260536,1345.31
1569990119.1263018,1366.73
1569990119.1265862,1353.22
1569990119.1589572,1374.73
1569990119.1592312,1365.88
1569990119.1594188,1376.15
1569990119.1921296,1382.35
1569990119.1923637,1384.25
1569990119.192571,1404.86
1569990119.1927755,1390.95
1569990119.2254448,1415.82
1569990119.2256231,1403.97
1569990119.225792,1422.17
1569990119.2588196,1416.11
1569990119.2590737,1419.33
1569990119.2592394,1427.56
1569990119.2596455,1421.51
1569990119.2920456,1442.19
1569990119.292198,1424.76
1569990119.292354,1445.93
1569990119.3254192,1434.56
1569990119.3256347,1448.23
1569990119.325793,1444.73
1569990119.3259444,1441.83
1569990119.358757,1459.01
1569990119.35896,1442.28
1569990119.3591344,1463.29
1569990119.3592892,1448.81
1569990119.3920836,1464.95
1569990119.392365,1456.32
1569990119.3926342,1457.1
1569990119.4252515,1463.97
1569990119.4255085,1456.09
1569990119.4257157,1476.31
1569990119.4259238,1458.43
1569990119.4586427,1479.53
1569990119.4588778,1467.38
1569990119.4591124,1479.65
1569990119.4918249,1474.81
1569990119.4921002,1470.72
1569990119.4923291,1481.98
1569990119.4925427,1469.14
1569990119.5251198,1488.7
1569990119.5252986,1469.19
1569990119.5254807,1488.95
1569990119.5585663,1480.53
1569990119.5587938,1487.63
1569990119.5589736,1486.81
1569990119.5591476,1477.04
1569990119.5916765,1496.95
1569990119.5918212,1479.48
1569990119.5919826,1500.03
1569990119.6249611,1487.16
1569990119.625146,1498.43
1569990119.6253204,1493.38
1569990119.6254447,1488.35
1569990119.6584537,1498.75
1569990119.6587481,1485.06
1569990119.6589062,1504.61
1569990119.6590486,1484.56
1569990119.6916497,1502.79
1569990119.6918428,1492.59
1569990119.6920455,1498.18
1569990119.7248604,1496.21
1569990119.7250705,1485.26
1569990119.7252533,1499.78
1569990119.725471,1482.62
1569990119.758175,1500.58
1569990119.758314,1481.65
1569990119.7584376,1496.23
1569990119.7914386,1490.21
1569990119.7916546,1491.45
1569990119.7918417,1494.44
1569990119.792023,1480.19
1569990119.8247185,1499.77
1569990119.8248632,1479.93
1569990119.8249807,1498.12
1569990119.8583946,1488.79
1569990119.8590374,1494.57
1569990119.8592422,1493.25
1569990119.8594184,1482.31
1569990119.8913448,1497.2
1569990119.891512,1480.38
1569990119.8916404,1498.72
1569990119.9245737,1480.09
1569990119.9247258,1495.45
1569990119.9248452,1489.93
1569990119.9249613,1490.06
1569990119.9579518,1492.62
1569990119.9581637,1477.23
1569990119.958342,1494.18
1569990119.958546,1474.56
1569990119.9912324,1492.23
1569990119.9913878,1477.46
1569990119.991514,1489.03
1569990120.0245655,1488.49
1569990120.024749,1484.58
1569990120.0248914,1493.92
1569990120.0250273,1477.1
1569990120.0578709,1495.39
1569990120.0580823,1477.0
1569990120.0582747,1491.46
1569990120.091108,1485.93
1569990120.091271,1486.11
1569990120.0914004,1489.47
1569990120.0915253,1474.26
1569990120.1243818,1491.51
1569990120.1245701,1472.34
1569990120.1247036,1489.49
1569990120.1576707,1473.88
1569990120.1578531,1483.9
1569990120.158002,1482.85
1569990120.1581247,1478.26
1569990120.191046,1487.54
1569990120.1913013,1470.34
1569990120.191426,1489.05
1569990120.2245388,1470.24
1569990120.2288184,1484.69
1569990120.2301474,1472.93
1569990120.2306137,1479.73
1569990120.2575603,1484.23
1569990120.257706,1475.34
1569990120.2578204,1488.51
1569990120.2579312,1470.32
1569990120.2909365,1487.99
1569990120.2910998,1472.79
1569990120.2912276,1483.36
1569990120.3241904,1483.27
1569990120.3243537,1478.53
1569990120.3244913,1487.98
1569990120.3246253,1470.7
1569990120.357545,1489.88
1569990120.3577816,1471.52
1569990120.358007,1486.56
1569990120.390743,1475.19
1569990120.3908863,1481.68
1569990120.3910556,1486.17
1569990120.3912053,1476.61
1569990120.4240372,1489.48
1569990120.4241636,1471.06
1569990120.4242635,1492.13
1569990120.4573386,1474.7
1569990120.4575658,1484.95
1569990120.4577675,1477.77
1569990120.4579296,1479.53
1569990120.4908667,1488.52
1569990120.4910946,1473.73
1569990120.4913087,1489.22
1569990120.5238943,1470.14
1569990120.5240762,1484.56
1569990120.5242262,1473.24
1569990120.5243723,1478.67
1569990120.557238,1483.1
1569990120.5573928,1472.77
1569990120.5575314,1485.33
1569990120.5576644,1466.54
1569990120.5906196,1486.94
1569990120.5908432,1469.11
1569990120.5909903,1479.25
1569990120.6239378,1472.58
1569990120.6241455,1474.75
1569990120.624311,1484.53
1569990120.6244648,1470.58
1569990120.6572635,1487.39
1569990120.6575704,1468.98
1569990120.6578548,1487.77
1569990120.6904395,1472.37
1569990120.6909227,1478.2
1569990120.6911178,1477.12
1569990120.6912758,1473.87
1569990120.7237034,1487.52
1569990120.7238576,1470.19
1569990120.7239833,1489.02
1569990120.7569578,1470.92
1569990120.7571752,1480.36
1569990120.7573578,1474.17
1569990120.7575178,1475.7
1569990120.790317,1485.37
1569990120.7904985,1470.02
1569990120.7906945,1485.66
1569990120.82493,1466.84
1569990120.825187,1484.99
1569990120.8253546,1469.27
1569990120.8255033,1474.83
1569990120.856903,1473.95
1569990120.857068,1470.74
1569990120.8571904,1484.42
1569990120.8573072,1467.46
1569990120.890286,1486.92
1569990120.8906054,1469.45
1569990120.8908815,1485.22
1569990120.9234717,1474.05
1569990120.9237006,1475.04
1569990120.9239218,1477.93
1569990120.9241295,1468.94
1569990120.9568884,1485.32
1569990120.9571702,1465.94
1569990120.957438,1484.97
1569990120.9899957,1469.28
1569990120.9901657,1473.92
1569990120.9903088,1472.47
1569990120.9904487,1468.84
1569990121.0233653,1482.36
1569990121.0235236,1465.12
1569990121.0236537,1485.23
1569990121.056579,1471.96
1569990121.0567086,1492.29
1569990121.056811,1489.3
1569990121.0569081,1500.3
1569990121.0898986,1512.66
1569990121.0900187,1516.06
1569990121.090117,1543.9
1569990121.123286,1533.18
1569990121.1236057,1561.14
1569990121.123835,1552.91
1569990121.1240377,1569.26
1569990121.1565762,1564.91
1569990121.156758,1562.77
1569990121.1568809,1570.73
1569990121.1569815,1557.11
1569990121.1898618,1572.81
1569990121.1900463,1549.55
1569990121.190208,1564.05
1569990121.223043,1548.11
1569990121.2231967,1544.42
1569990121.223315,1543.61
1569990121.223471,1529.66
1569990121.256437,1540.97
1569990121.2566211,1518.42
1569990121.256767,1533.02
1569990121.2896936,1513.76
1569990121.2899218,1522.04
1569990121.2901223,1509.92
1569990121.2903502,1502.02
1569990121.3229916,1506.71
1569990121.3231626,1490.97
1569990121.3233042,1505.55
1569990121.3562312,1482.47
1569990121.356426,1497.51
1569990121.3565555,1483.26
1569990121.3566787,1489.06
1569990121.3896494,1482.41
1569990121.3898199,1471.3
1569990121.3899834,1482.15
1569990121.42287,1465.55
1569990121.423083,1482.23
1569990121.4233222,1461.45
1569990121.4238727,1475.76
1569990121.4561815,1466.61
1569990121.4565754,1461.78
1569990121.4568017,1469.33
1569990121.4569762,1456.81
1569990121.4896574,1474.42
1569990121.4898021,1454.02
1569990121.48992,1470.81
1569990121.522792,1458.97
1569990121.5229876,1466.15
1569990121.5231454,1461.36
1569990121.5232875,1452.3
1569990121.556095,1464.71
1569990121.5562737,1449.37
1569990121.5564284,1466.93
1569990121.589355,1447.38
1569990121.5895503,1462.39
1569990121.5897117,1454.16
1569990121.5899134,1457.17
1569990121.6226723,1457.92
1569990121.6228344,1446.01
1569990121.6229734,1461.34
1569990121.6559215,1443.36
1569990121.6560957,1461.61
1569990121.6562107,1445.81
1569990121.6563184,1458.05
1569990121.6892512,1453.53
1569990121.6894522,1444.66
1569990121.6896489,1456.58
1569990121.7224667,1442.2
1569990121.722723,1460.19
1569990121.722912,1438.42
1569990121.7230923,1446.47
1569990121.7558417,1429.28
1569990121.7560291,1423.18
1569990121.756207,1412.33
1569990121.7563977,1387.86
1569990121.789158,1393.22
1569990121.789905,1363.2
1569990121.790148,1369.75
1569990121.8224676,1346.78
1569990121.8226986,1351.63
1569990121.822831,1343.27
1569990121.8229632,1339.39
1569990121.8557851,1344.82
1569990121.8559449,1331.86
1569990121.8560753,1352.52
1569990121.8890114,1338.54
1569990121.8891907,1359.45
1569990121.8893409,1352.16
1569990121.8894885,1368.73
1569990121.9223695,1376.86
1569990121.9225829,1370.71
1569990121.9227622,1391.02
1569990121.9555988,1379.62
1569990121.9558215,1403.03
1569990121.956012,1391.92
1569990121.956197,1409.02
1569990121.988897,1410.91
1569990121.98911,1413.05
1569990121.9892805,1423.35
1569990122.0220973,1412.38
1569990122.0222852,1434.25
1569990122.0224373,1424.23
1569990122.0226095,1447.19
1569990122.0554576,1438.8
1569990122.055666,1451.88
1569990122.0558894,1457.11
1569990122.0561078,1453.38
1569990122.088833,1465.93
1569990122.0890262,1450.55
1569990122.0892503,1471.2
1569990122.122055,1455.42
1569990122.1222453,1468.64
1569990122.1223934,1460.39
1569990122.12257,1466.58
1569990122.1553304,1474.81
1569990122.1554875,1461.9
1569990122.15563,1480.73
1569990122.18868,1463.82
1569990122.1888661,1480.24
1569990122.188997,1468.44
1569990122.1891212,1477.89
1569990122.2219965,1481.21
1569990122.222159,1475.4
1569990122.2222931,1486.84
1569990122.255244,1471.02
1569990122.2555265,1491.51
1569990122.2557669,1475.69
1569990122.2559643,1488.53
1569990122.2884433,1480.33
1569990122.288617,1485.5
1569990122.2887657,1492.53
1569990122.321734,1481.5
1569990122.3219237,1496.03
1569990122.3220391,1479.46
1569990122.3221772,1499.08
1569990122.3550832,1483.75
1569990122.3552473,1492.61
1569990122.3553824,1488.27
1569990122.3555136,1487.17
1569990122.3885903,1497.57
1569990122.3887334,1480.32
1569990122.388841,1499.84
1569990122.4216607,1482.77
1569990122.4218123,1494.26
1569990122.4219332,1485.34
1569990122.4220488,1489.36
1569990122.4550095,1496.45
1569990122.455203,1484.64
1569990122.4553463,1498.41
1569990122.488264,1480.68
1569990122.4884813,1499.51
1569990122.4886696,1483.87
1569990122.4888659,1491.34
1569990122.5216773,1486.75
1569990122.5219069,1484.55
1569990122.5221384,1494.01
1569990122.5548704,1478.13
1569990122.5551212,1494.97
1569990122.5552685,1477.31
1569990122.5553894,1492.86
1569990122.58824,1479.99
1569990122.588405,1484.44
1569990122.5885358,1486.06
1569990122.621417,1481.95
1569990122.6215887,1496.88
1569990122.6217034,1480.21
1569990122.621813,1499.52
1569990122.6548047,1484.41
1569990122.6549563,1492.29
1569990122.6550603,1488.64
1569990122.6551576,1487.44
1569990122.6882107,1498.48
1569990122.6884487,1483.26
1569990122.6886785,1501.05
1569990122.721423,1483.26
1569990122.7216244,1497.78
1569990122.7217712,1483.13
1569990122.7219005,1484.78
1569990122.7547033,1484.66
1569990122.7548704,1477.79
1569990122.7549982,1491.3
1569990122.7879791,1473.74
1569990122.7882278,1491.22
1569990122.7883918,1474.84
1569990122.7885408,1487.84
1569990122.821393,1478.19
1569990122.8215554,1476.73
1569990122.821689,1482.29
1569990122.8545892,1472.56
1569990122.8548007,1489.78
1569990122.8549354,1472.18
1569990122.8550632,1487.46
1569990122.887854,1474.23
1569990122.888097,1476.89
1569990122.888262,1478.01
1569990122.9210334,1471.86
1569990122.9211705,1486.68
1569990122.9213326,1469.21
1569990122.9214966,1486.82
1569990122.9546008,1471.18
1569990122.9548101,1484.04
1569990122.9550316,1474.73
1569990122.9552495,1472.89
1569990122.987708,1478.67
1569990122.9879065,1469.47
1569990122.988032,1487.98
1569990123.0214007,1469.11
1569990123.0217335,1487.77
1569990123.0218565,1476.83
1569990123.0219662,1487.14
1569990123.0542848,1482.22
1569990123.054498,1476.28
1569990123.0547235,1486.97
1569990123.0876071,1473.63
1569990123.0878477,1491.25
1569990123.0880518,1475.42
1569990123.088266,1488.31
1569990123.1208608,1479.36
1569990123.1210225,1477.34
1569990123.121165,1483.53
1569990123.154135,1473.98
1569990123.1543043,1492.13
1569990123.1544785,1473.14
1569990123.154725,1491.0
1569990123.1874855,1479.03
1569990123.1877177,1488.41
1569990123.1878917,1483.98
1569990123.2208002,1478.07
1569990123.220989,1489.19
1569990123.221177,1475.72
1569990123.2214258,1492.93
1569990123.25406,1473.81
1569990123.2542813,1489.92
1569990123.254583,1480.57
1569990123.2548206,1484.76
1569990123.287341,1484.15
1569990123.2875283,1473.61
1569990123.2876494,1488.44
1569990123.320687,1472.34
1569990123.320851,1490.14
1569990123.3209667,1478.22
1569990123.3211484,1486.87
1569990123.3540285,1481.65
1569990123.3541932,1474.31
1569990123.3543503,1485.55
1569990123.387254,1472.35
1569990123.3874404,1490.83
1569990123.3876112,1472.02
1569990123.387787,1487.07
1569990123.420543,1477.17
1569990123.4206905,1481.98
1569990123.4208112,1485.2
1569990123.4538252,1479.08
1569990123.454024,1498.45
1569990123.4542837,1487.47
1569990123.4545853,1510.97
1569990123.487149,1500.29
1569990123.4873161,1521.51
1569990123.4875016,1524.5
1569990123.520495,1530.84
1569990123.520725,1543.42
1569990123.5208688,1537.87
1569990123.520999,1560.62
1569990123.5538406,1548.97
1569990123.5541615,1568.74
1569990123.554449,1562.33
1569990123.5547829,1566.46
1569990123.5870173,1564.78
1569990123.587151,1551.49
1569990123.5873141,1563.41
1569990123.6203723,1542.77
1569990123.6205566,1556.91
1569990123.6207664,1537.67
1569990123.6210876,1546.49
1569990123.6540406,1536.66
1569990123.654763,1531.95
1569990123.6550112,1532.54
1569990123.6868286,1513.73
1569990123.6869726,1526.57
1569990123.687101,1504.27
1569990123.6872208,1516.32
1569990123.7202425,1499.95
1569990123.7204382,1506.19
1569990123.7205927,1502.8
1569990123.7535331,1495.06
1569990123.7536886,1501.01
1569990123.7538137,1481.45
1569990123.7539341,1498.91
1569990123.7868102,1480.7
1569990123.787048,1492.18
1569990123.7872713,1486.16
1569990123.8206234,1483.37
1569990123.820829,1486.45
1569990123.8210397,1471.11
1569990123.821353,1487.08
1569990123.8534002,1467.86
1569990123.8536232,1482.92
1569990123.853803,1468.3
1569990123.853976,1476.59
1569990123.8867133,1475.9
1569990123.8868792,1469.45
1569990123.8871055,1478.01
1569990123.919996,1460.28
1569990123.920187,1478.7
1569990123.9203439,1460.92
1569990123.9204817,1472.33
1569990123.9532537,1460.67
1569990123.9534316,1464.57
1569990123.953596,1468.59
1569990123.9868207,1457.85
1569990123.9869661,1470.25
1569990123.987082,1452.63
1569990123.9871924,1471.79
1569990124.01987,1455.84
1569990124.020083,1464.94
1569990124.02025,1465.89
1569990124.0531504,1461.0
1569990124.0533226,1471.57
1569990124.0534632,1454.36
1569990124.0535946,1473.46
1569990124.0864978,1456.43
1569990124.0866754,1469.28
1569990124.0868654,1459.38
1569990124.119712,1463.85
1569990124.1198955,1468.91
1569990124.120039,1457.98
1569990124.1201782,1471.42
1569990124.1530812,1451.69
1569990124.153247,1466.38
1569990124.153396,1441.56
1569990124.1536531,1439.3
1569990124.1864102,1424.97
1569990124.1867054,1412.19
1569990124.1869378,1409.37
1569990124.2196314,1384.51
1569990124.2198362,1389.9
1569990124.2202032,1362.91
1569990124.2203577,1373.1
1569990124.2530782,1354.53
1569990124.2533216,1357.25
1569990124.2534738,1364.43
1569990124.286173,1354.92
1569990124.2863278,1371.4
1569990124.2864406,1356.83
1569990124.2865963,1378.85
1569990124.3194845,1367.41
1569990124.3196776,1380.62
1569990124.3198707,1380.54
1569990124.3527243,1384.5
1569990124.3528776,1399.54
1569990124.3529994,1388.23
1569990124.3531144,1410.77
1569990124.3860748,1399.08
1569990124.386262,1419.5
1569990124.3864098,1410.79
1569990124.4193153,1419.49
1569990124.4194863,1423.84
1569990124.4196281,1422.79
1569990124.4197657,1439.61
1569990124.4526227,1424.97
1569990124.4528337,1448.35
1569990124.4530406,1439.02
1569990124.453244,1457.59
1569990124.486067,1452.15
1569990124.486303,1454.57
1569990124.4865673,1468.97
1569990124.5191963,1456.04
1569990124.5193346,1475.82
1569990124.519444,1461.17
1569990124.5195448,1478.89
1569990124.5525556,1467.55
1569990124.552765,1472.9
1569990124.5529394,1474.68
1569990124.5866795,1469.97
1569990124.586859,1485.23
1569990124.5870008,1468.53
1569990124.5871334,1487.77
1569990124.6192584,1473.28
1569990124.6195145,1488.01
1569990124.6198535,1479.89
1569990124.6523738,1479.95
1569990124.6525395,1486.61
1569990124.6526787,1478.02
1569990124.6528082,1496.0
1569990124.6857865,1477.5
1569990124.685968,1496.44
1569990124.68612,1484.93
1569990124.718973,1495.91
1569990124.7191362,1490.89
1569990124.719261,1484.81
1569990124.7193785,1499.32
1569990124.7522945,1481.76
1569990124.752454,1499.9
1569990124.7525816,1484.28
1569990124.7527542,1497.71
1569990124.7856178,1488.91
1569990124.7858124,1487.61
1569990124.785928,1493.03
1569990124.818829,1483.35
1569990124.8190024,1500.94
1569990124.8191514,1481.64
1569990124.8192906,1499.86
1569990124.8522332,1487.75
1569990124.8524675,1498.2
1569990124.8526852,1493.98
1569990124.8854036,1487.8
1569990124.8855252,1498.56
1569990124.8856745,1485.25
1569990124.8858223,1503.69
1569990124.91883,1484.87
1569990124.9190905,1501.94
1569990124.9193149,1492.73
1569990124.952026,1497.63
1569990124.9522488,1497.0
1569990124.952404,1486.53
1569990124.9525461,1504.21
1569990124.9853375,1484.92
1569990124.9855998,1502.61
1569990124.9858253,1489.6
1569990125.0186641,1498.72
1569990125.0188649,1493.43
1569990125.0189989,1486.37
1569990125.0191255,1497.16
1569990125.051952,1483.55
1569990125.0521488,1502.28
1569990125.0522916,1483.2
1569990125.052436,1499.83
1569990125.085325,1490.85
1569990125.0855327,1495.24
1569990125.0856812,1495.17
1569990125.118551,1484.96
1569990125.1187577,1500.44
1569990125.1189373,1483.86
1569990125.1191144,1501.43
1569990125.1519597,1484.4
1569990125.1522346,1498.03
1569990125.152568,1493.48
1569990125.18508,1492.87
1569990125.1852345,1496.54
1569990125.1853619,1481.85
1569990125.1854858,1499.85
1569990125.218593,1480.4
1569990125.2188578,1496.08
1569990125.2190852,1487.08
1569990125.251675,1491.28
1569990125.2518542,1491.44
1569990125.2519994,1480.11
1569990125.2521362,1495.33
1569990125.2849586,1478.44
1569990125.2851143,1496.57
1569990125.2852535,1479.88
1569990125.3182688,1493.13
1569990125.3184798,1488.98
1569990125.3186805,1488.53
1569990125.3188324,1492.8
1569990125.3517532,1478.09
1569990125.3520858,1495.49
1569990125.3522146,1477.51
1569990125.352333,1494.05
1569990125.3848493,1480.13
1569990125.3850229,1489.41
1569990125.3851542,1489.63
1569990125.4181094,1484.53
1569990125.4182663,1494.18
1569990125.4183946,1477.12
1569990125.4185545,1495.62
1569990125.451628,1479.86
1569990125.4518726,1493.12
1569990125.4520261,1489.32
1569990125.4848003,1488.76
1569990125.48503,1494.48
1569990125.48522,1480.1
1569990125.4854033,1497.45
1569990125.518088,1478.15
1569990125.518364,1493.07
1569990125.5187228,1478.91
1569990125.5514565,1487.8
1569990125.5517051,1487.97
1569990125.5518806,1481.53
1569990125.5520244,1490.52
1569990125.5846229,1472.73
1569990125.584795,1492.07
1569990125.584935,1474.01
1569990125.6179402,1486.42
1569990125.6181228,1476.25
1569990125.618264,1481.61
1569990125.618366,1487.49
1569990125.651217,1477.09
1569990125.6514323,1490.55
1569990125.651643,1471.94
1569990125.65179,1487.76
1569990125.6845691,1474.68
1569990125.6847086,1483.56
1569990125.6848218,1484.51
1569990125.717847,1477.88
1569990125.718002,1487.45
1569990125.7181244,1469.73
1569990125.7182672,1488.81
1569990125.7512126,1470.74
1569990125.7514627,1482.91
1569990125.751678,1473.02
1569990125.7844377,1477.85
1569990125.7845988,1484.13
1569990125.784727,1473.4
1569990125.784849,1486.5
1569990125.8177106,1469.34
1569990125.8179002,1492.07
1569990125.8180583,1481.55
1569990125.8510258,1498.38
1569990125.851316,1501.63
1569990125.8515334,1512.69
1569990125.8517392,1534.33
1569990125.8844447,1528.48
1569990125.8849282,1556.35
1569990125.8850543,1547.83
1569990125.917585,1567.38
1569990125.9178162,1562.46
1569990125.917969,1571.2
1569990125.9181147,1579.82
1569990125.9509254,1568.54
1569990125.9511313,1581.3
1569990125.951321,1560.41
1569990125.9514923,1576.74
1569990125.9843605,1555.94
1569990125.9845228,1559.96
1569990125.984657,1551.8
1569990126.017482,1546.93
1569990126.0176878,1553.24
1569990126.018,1534.41
1569990126.0182176,1546.79
1569990126.050866,1524.42
1569990126.051054,1537.17
1569990126.051275,1518.09
1569990126.0846405,1518.11
1569990126.0850806,1515.2
1569990126.0854454,1506.16
1569990126.0858023,1516.69
1569990126.1174958,1496.28
1569990126.117752,1511.98
1569990126.1179655,1492.81
1569990126.150688,1497.95
1569990126.150929,1491.59
1569990126.151123,1487.37
1569990126.1513364,1494.55
1569990126.1840084,1476.69
1569990126.184228,1492.37
1569990126.1843853,1473.01
1569990126.21718,1487.69
1569990126.2173235,1471.8
1569990126.2174509,1474.3
1569990126.2175667,1474.41
1569990126.2506895,1467.48
1569990126.2509437,1480.35
1569990126.2511508,1461.48
1569990126.2513492,1478.82
1569990126.28394,1462.05
1569990126.2841253,1474.96
1569990126.2869976,1463.81
1569990126.317106,1461.7
1569990126.3172765,1466.96
1569990126.3174138,1456.8
1569990126.3175454,1474.17
1569990126.350448,1453.97
1569990126.3507168,1471.31
1569990126.3509448,1456.96
1569990126.3837745,1459.13
1569990126.3840568,1459.6
1569990126.384291,1452.58
1569990126.3845117,1466.79
1569990126.41709,1448.63
1569990126.4172883,1467.49
1569990126.417488,1451.81
1569990126.4502583,1465.01
1569990126.4504216,1455.03
1569990126.4506054,1452.65
1569990126.4507236,1458.47
1569990126.4838676,1449.24
1569990126.4841511,1466.87
1569990126.4843502,1443.75
1569990126.5169177,1453.67
1569990126.517209,1430.32
1569990126.5174263,1430.31
1569990126.5175738,1412.1
1569990126.5501354,1392.41
1569990126.5502846,1393.69
1569990126.5504043,1368.18
1569990126.5505753,1377.1
1569990126.5834942,1351.26
1569990126.5836673,1362.43
1569990126.5838022,1350.63
1569990126.6168082,1347.72
1569990126.6171682,1354.89
1569990126.6174114,1346.24
1569990126.6176052,1367.79
1569990126.6501274,1350.78
1569990126.650365,1372.97
1569990126.65057,1365.59
1569990126.6834183,1378.67
1569990126.683694,1378.62
1569990126.6839628,1376.34
1569990126.684248,1391.87
1569990126.7168398,1383.26
1569990126.7171938,1407.86
1569990126.717684,1393.1
1569990126.749888,1415.64
1569990126.7500293,1412.53
1569990126.7501407,1420.61
1569990126.7502415,1425.12
1569990126.783269,1417.96
1569990126.7834618,1436.59
1569990126.7836266,1423.06
1569990126.8165178,1444.94
1569990126.8166592,1431.15
1569990126.8167837,1448.32
1569990126.8169465,1446.76
1569990126.849865,1441.66
1569990126.8500433,1455.6
1569990126.850192,1443.58
1569990126.8503258,1465.03
1569990126.8831766,1447.96
1569990126.8833563,1466.66
1569990126.8834748,1460.39
1569990126.9164505,1465.24
1569990126.9167764,1467.17
1569990126.9169447,1457.16
1569990126.9170737,1473.88
1569990126.9498017,1457.21
1569990126.9499831,1475.97
1569990126.9501145,1459.9
1569990126.983124,1474.19
1569990126.9833047,1472.0
1569990126.9834301,1472.41
1569990126.9835606,1479.85
1569990127.016616,1467.22
1569990127.016861,1486.44
1569990127.016986,1469.1
1569990127.0498323,1486.63
1569990127.0502892,1474.25
1569990127.050863,1485.03
1569990127.0512786,1487.49
1569990127.0829093,1476.75
1569990127.08309,1493.29
1569990127.0832393,1476.01
1569990127.116181,1494.52
1569990127.1163914,1479.22
1569990127.1165605,1492.94
1569990127.1167119,1489.98
1569990127.1496232,1488.62
1569990127.1498427,1494.44
1569990127.1500194,1479.84
1569990127.1501918,1498.25
1569990127.1828208,1479.91
1569990127.1830065,1495.78
1569990127.1831455,1481.88
1569990127.216074,1490.89
1569990127.2162411,1492.09
1569990127.216378,1485.66
1569990127.2165082,1496.18
1569990127.2493987,1478.53
1569990127.2495627,1497.76
1569990127.2497191,1476.65
1569990127.282746,1483.1
1569990127.2829413,1467.86
1569990127.283119,1465.57
1569990127.2832377,1465.08
1569990127.3160696,1443.1
1569990127.3163078,1456.76
1569990127.3165078,1433.09
1569990127.3493392,1444.19
1569990127.3495817,1428.67
1569990127.3498032,1435.48
1569990127.350015,1436.84
1569990127.3828218,1429.63
1569990127.383049,1440.9
1569990127.3832045,1424.21
1569990127.415757,1445.55
1569990127.415935,1430.59
1569990127.4160767,1444.83
1569990127.4162128,1437.76
1569990127.449083,1443.6
1569990127.4493752,1453.61
1569990127.4496038,1447.11
1569990127.4498158,1470.56
1569990127.4826012,1462.75
1569990127.4827514,1491.45
1569990127.4828672,1487.01
1569990127.5157888,1506.38
1569990127.516018,1509.84
1569990127.5162437,1516.17
1569990127.5165231,1531.68
1569990127.5491734,1516.41
1569990127.5494778,1537.55
1569990127.549707,1520.52
1569990127.58226,1531.66
1569990127.582438,1522.21
1569990127.582598,1524.97
1569990127.5827332,1531.67
1569990127.6156719,1518.42
1569990127.6158338,1531.17
1569990127.6160038,1510.88
1569990127.6489656,1528.69
1569990127.649206,1510.74
1569990127.6494343,1516.65
1569990127.6495957,1511.95
1569990127.6826391,1508.66
1569990127.6831913,1518.47
1569990127.6834726,1501.79
1569990127.7155924,1519.09
1569990127.7158437,1500.12
1569990127.7160466,1514.59
1569990127.716273,1499.38
1569990127.748729,1500.99
1569990127.7488842,1501.08
1569990127.749012,1493.45
1569990127.7491338,1506.8
1569990127.7823975,1487.01
1569990127.7829401,1504.83
1569990127.7831135,1487.44
1569990127.8153172,1493.03
1569990127.8154645,1488.76
1569990127.8155823,1485.6
1569990127.815694,1496.56
1569990127.8487134,1479.91
1569990127.8488934,1497.09
1569990127.849029,1478.04
1569990127.881963,1492.87
1569990127.8821318,1479.3
1569990127.8822696,1480.98
1569990127.8824294,1482.44
1569990127.915264,1477.76
1569990127.9154775,1498.42
1569990127.9156215,1486.96
1569990127.9485354,1515.15
1569990127.9487722,1510.53
1569990127.9489162,1532.64
1569990127.9490528,1534.36
1569990127.9818623,1542.5
1569990127.982097,1556.41
1569990127.9823024,1553.7
1569990128.015035,1577.5
1569990128.015175,1563.36
1569990128.0152864,1580.37
1569990128.0153933,1568.84
1569990128.0484102,1570.18
1569990128.0485983,1570.26
1569990128.0487533,1559.9
1569990128.0489016,1570.7
1569990128.0817416,1548.5
1569990128.0819504,1561.95
1569990128.082101,1541.08
1569990128.115045,1549.3
1569990128.115286,1535.32
1569990128.1155365,1528.27
1569990128.1159344,1531.32
1569990128.1483665,1516.25
1569990128.1485293,1529.72
1569990128.1486564,1506.02
1569990128.181663,1519.59
1569990128.1818473,1503.5
1569990128.181983,1509.11
1569990128.1821063,1499.87
1569990128.2149844,1488.33
1569990128.215131,1496.86
1569990128.2152493,1479.38
1569990128.2481894,1493.97
1569990128.2483861,1475.31
1569990128.2485309,1485.42
1569990128.2486684,1474.33
1569990128.281591,1469.23
1569990128.281922,1474.84
1569990128.2821908,1462.55
1569990128.31485,1478.52
1569990128.3152058,1457.32
1569990128.3154988,1474.21
1569990128.3157964,1461.37
1569990128.3481107,1468.86
1569990128.3482947,1463.7
1569990128.34843,1455.43
1569990128.348623,1466.46
1569990128.3814507,1450.83
1569990128.381709,1466.72
1569990128.381979,1446.5
1569990128.4147878,1460.98
1569990128.4150739,1451.4
1569990128.4153132,1454.44
1569990128.4155378,1453.48
1569990128.4484441,1441.11
1569990128.448884,1455.19
1569990128.4491243,1437.28
1569990128.4811916,1455.01
1569990128.4813182,1444.78
1569990128.4814193,1452.02
1569990128.4815388,1442.81
1569990128.5145843,1426.73
1569990128.5147533,1430.7
1569990128.5148807,1405.61
1569990128.5477362,1411.57
1569990128.547863,1383.28
1569990128.5479598,1387.65
1569990128.5480533,1370.49
1569990128.5811548,1368.16
1569990128.5813608,1364.67
1569990128.5815291,1351.78
1569990128.6144736,1367.66
1569990128.6149673,1352.43
1569990128.6152809,1372.44
1569990128.6155522,1359.48
1569990128.6476994,1375.38
1569990128.647853,1373.54
1569990128.6479764,1371.47
1569990128.6480944,1374.42
1569990128.681154,1356.4
1569990128.6814203,1370.05
1569990128.6815813,1348.43
1569990128.7143579,1360.92
1569990128.7145917,1352.54
1569990128.7147138,1355.28
1569990128.7148201,1357.79
1569990128.7476907,1348.71
1569990128.747907,1367.28
1569990128.7481973,1355.08
1569990128.7811804,1377.56
1569990128.7813907,1366.34
1569990128.781524,1383.09
1569990128.781645,1385.74
1569990128.8143845,1388.8
1569990128.8145723,1400.7
1569990128.8146937,1391.67
1569990128.8475013,1413.47
1569990128.8477392,1401.41
1569990128.847905,1421.62
1569990128.848129,1413.01
1569990128.8809676,1425.72
1569990128.8812783,1430.79
1569990128.8815362,1428.59
1569990128.9140713,1447.43
1569990128.9142702,1441.41
1569990128.914434,1469.6
1569990128.914717,1463.21
1569990128.9474277,1482.69
1569990128.9477518,1485.93
1569990128.9480548,1487.37
1569990128.9483154,1497.46
1569990128.9807174,1485.26
1569990128.9809477,1503.79
1569990128.9812038,1487.75
1569990129.0140438,1503.59
1569990129.0143368,1491.75
1569990129.014664,1500.04
1569990129.0149803,1502.41
1569990129.047396,1495.67
1569990129.0476363,1505.73
1569990129.0478172,1487.73
1569990129.080612,1505.85
1569990129.0808861,1487.51
1569990129.0811148,1497.54
1569990129.0813289,1488.67
1569990129.114032,1491.74
1569990129.1143267,1497.97
1569990129.1145828,1485.61
1569990129.147173,1498.55
1569990129.1474392,1481.2
1569990129.147651,1499.35
1569990129.1478307,1484.17
1569990129.1805668,1491.57
1569990129.1808217,1494.12
1569990129.1810236,1487.05
1569990129.2137003,1497.65
1569990129.2139137,1480.21
1569990129.214071,1498.83
1569990129.214223,1481.32
1569990129.247201,1492.01
1569990129.2475863,1484.16
1569990129.2478304,1486.83
1569990129.248085,1494.53
1569990129.2804184,1482.48
1569990129.2807136,1496.56
1569990129.2809765,1478.88
1569990129.3136704,1496.75
1569990129.3139615,1481.79
1569990129.314228,1488.72
1569990129.3144896,1485.93
1569990129.3469257,1484.63
1569990129.347156,1495.9
1569990129.347357,1480.51
1569990129.3801613,1497.53
1569990129.380377,1480.1
1569990129.38053,1495.21
1569990129.3807092,1483.39
1569990129.413554,1485.65
1569990129.4137557,1492.8
1569990129.4139054,1479.24
1569990129.4467585,1493.4
1569990129.4469426,1476.51
1569990129.4470763,1494.26
1569990129.4471967,1479.67
1569990129.4801147,1486.17
1569990129.4803193,1483.61
1569990129.4804459,1483.84
1569990129.5133126,1501.6
1569990129.5135362,1492.0
1569990129.5136912,1518.94
1569990129.5138376,1513.67
1569990129.546748,1538.33
1569990129.5470037,1538.11
1569990129.5471766,1550.74
1569990129.5474458,1560.36
1569990129.5800228,1561.64
1569990129.580302,1582.99
1569990129.5805418,1569.07
1569990129.6132476,1589.44
1569990129.6134536,1575.56
1569990129.6136165,1587.65
1569990129.6137726,1578.15
1569990129.646556,1572.63
1569990129.6466863,1580.53
1569990129.646789,1560.93
1569990129.6798632,1572.79
1569990129.6800327,1550.8
1569990129.680162,1561.85
1569990129.68028,1545.3
1569990129.7132425,1540.64
1569990129.7134552,1538.07
1569990129.7136106,1525.3
1569990129.746481,1536.24
1569990129.7468119,1514.53
1569990129.7470489,1527.99
1569990129.7472665,1509.32
1569990129.7797766,1518.74
1569990129.7799377,1507.54
1569990129.7800567,1501.14
1569990129.8129873,1506.31
1569990129.813202,1491.98
1569990129.8133488,1507.18
1569990129.8134825,1486.15
1569990129.846829,1501.27
1569990129.8471289,1488.39
1569990129.847311,1494.43
1569990129.8474312,1489.19
1569990129.8797426,1479.31
1569990129.8800607,1494.22
1569990129.8803523,1474.65
1569990129.9129508,1490.77
1569990129.9132843,1475.46
1569990129.9135845,1485.92
1569990129.913873,1477.93
1569990129.9462106,1473.09
1569990129.946433,1480.58
1569990129.9467065,1467.84
1569990129.9795632,1485.11
1569990129.979761,1465.84
1569990129.9798963,1483.26
1569990129.9800131,1471.98
1569990130.0129168,1478.42
1569990130.0131285,1475.48
1569990130.013258,1466.38
1569990130.0460863,1478.97
1569990130.0463061,1462.64
1569990130.0464478,1478.97
1569990130.0466218,1460.06
1569990130.07935,1474.07
1569990130.0795546,1467.33
1569990130.0796752,1469.74
1569990130.112732,1472.5
1569990130.1130006,1460.36
1569990130.113198,1475.39
1569990130.1133692,1451.77
1569990130.1460743,1460.79
1569990130.1463435,1439.86
1569990130.1466358,1435.87
1569990130.1468885,1420.82
1569990130.179264,1398.42
1569990130.1795738,1402.25
1569990130.1797101,1374.52
1569990130.2126048,1381.13
1569990130.2128878,1356.51
1569990130.2131338,1363.97
1569990130.2133873,1353.04
1569990130.2457945,1351.9
1569990130.2459242,1354.37
1569990130.2460263,1343.33
1569990130.2792556,1362.95
1569990130.2795131,1350.41
1569990130.2797484,1372.92
1569990130.2799554,1363.98
1569990130.3125615,1381.78
1569990130.3127952,1387.63
1569990130.312947,1389.71
1569990130.345703,1403.65
1569990130.3459005,1393.89
1569990130.3460467,1417.56
1569990130.3461838,1405.23
1569990130.3791952,1424.36
1569990130.3794694,1423.94
1569990130.3796508,1428.14
1569990130.4123,1436.06
1569990130.4125218,1427.33
1569990130.4126914,1446.92
1569990130.4128468,1433.36
1569990130.4455879,1453.18
1569990130.445739,1441.31
1569990130.445848,1454.68
1569990130.4459486,1456.61
1569990130.4789524,1454.69
1569990130.47929,1464.86
1569990130.4795938,1450.12
1569990130.5122166,1469.76
1569990130.5125694,1453.91
1569990130.5128455,1469.18
1569990130.513115,1459.63
1569990130.5454526,1468.6
1569990130.545611,1477.15
1569990130.5457435,1472.48
1569990130.5787754,1489.33
1569990130.57896,1475.38
1569990130.579101,1493.83
1569990130.5792332,1481.14
1569990130.6121294,1492.72
1569990130.612324,1493.94
1569990130.612476,1490.04
1569990130.6453755,1498.99
1569990130.6456418,1483.6
1569990130.6457744,1502.69
1569990130.645896,1485.16
1569990130.6788478,1497.73
1569990130.6790714,1486.3
1569990130.6792073,1491.59
1569990130.7119126,1496.2
1569990130.712143,1487.1
1569990130.7123544,1499.03
1569990130.7125852,1481.22
1569990130.745239,1499.85
1569990130.7454371,1482.8
1569990130.7456686,1491.8
1569990130.7459128,1485.55
1569990130.7786658,1485.91
1569990130.778902,1494.11
1569990130.779096,1480.34
1569990130.8127604,1496.59
1569990130.8130336,1479.65
1569990130.8132865,1492.16
1569990130.8135865,1482.3
1569990130.8451195,1487.5
1569990130.845284,1492.77
1569990130.8454242,1482.82
1569990130.878458,1494.79
1569990130.8787997,1476.24
1569990130.8790686,1494.23
1569990130.879329,1477.78
1569990130.9116726,1486.72
1569990130.911832,1480.68
1569990130.911945,1480.42
1569990130.9451602,1489.39
1569990130.9455044,1474.85
1569990130.9457755,1490.66
1569990130.9459977,1473.0
1569990130.9782877,1488.94
1569990130.9784558,1474.21
1569990130.9786427,1478.12
1569990131.0115938,1477.2
1569990131.0118423,1472.89
1569990131.0119789,1485.72
1569990131.0121121,1468.51
1569990131.0448408,1485.59
1569990131.04499,1469.19
1569990131.0451002,1477.28
1569990131.0452042,1472.55
1569990131.0782053,1473.05
1569990131.0783465,1484.11
1569990131.0784533,1471.01
1569990131.1114767,1488.7
1569990131.111708,1472.82
1569990131.1119199,1489.4
1569990131.1121807,1476.79
1569990131.144888,1482.03
1569990131.1451902,1482.98
1569990131.1454656,1478.8
1569990131.1782022,1492.37
1569990131.1785855,1475.34
1569990131.1788464,1492.16
1569990131.1790705,1476.93
1569990131.211414,1493.12
1569990131.2115417,1489.35
1569990131.211638,1497.57
1569990131.2447824,1510.51
1569990131.2450087,1512.92
1569990131.2451582,1541.26
1569990131.245302,1531.11
1569990131.2780497,1557.96
1569990131.2783055,1552.81
1569990131.2784617,1561.93
1569990131.3112202,1565.62
1569990131.3113887,1562.77
1569990131.3114955,1577.03
1569990131.311673,1559.91
1569990131.344479,1576.17
1569990131.344606,1557.51
1569990131.3447065,1567.59
1569990131.344831,1553.82
1569990131.3780324,1548.4
1569990131.3782246,1549.84
1569990131.3784158,1536.27
1569990131.411159,1549.52
1569990131.4113839,1527.39
1569990131.4115648,1540.64
1569990131.4117355,1524.25
1569990131.4444995,1531.73
1569990131.4447393,1522.3
1569990131.4449406,1512.55
1569990131.477704,1519.93
1569990131.477885,1503.98
1569990131.4780247,1519.75
1569990131.4781578,1500.17
1569990131.51128,1515.92
1569990131.5115087,1506.23
1569990131.5117042,1503.64
1569990131.5442996,1508.33
1569990131.5444858,1496.28
1569990131.5446177,1510.89
1569990131.5447383,1489.36
1569990131.577951,1503.68
1569990131.578238,1488.5
1569990131.578451,1495.34
1569990131.6108882,1487.08
1569990131.6111262,1478.25
1569990131.6112812,1487.94
1569990131.6114597,1473.15
1569990131.6442091,1489.45
1569990131.6444786,1469.48
1569990131.6446548,1484.28
1569990131.64479,1474.63
1569990131.6776114,1478.16
1569990131.6778445,1476.91
1569990131.6780381,1465.93
1569990131.710875,1479.97
1569990131.7112327,1462.47
1569990131.7114835,1479.9
1569990131.711689,1463.81
1569990131.7443485,1476.6
1569990131.744741,1471.22
1569990131.745054,1464.42
1569990131.7773259,1476.3
1569990131.7775533,1459.4
1569990131.7777243,1470.69
1569990131.77783,1445.34
1569990131.8111236,1450.72
1569990131.8113623,1432.07
1569990131.8115315,1426.09
1569990131.8438973,1414.18
1569990131.84404,1390.77
1569990131.8441563,1396.13
1569990131.844265,1368.24
1569990131.8773828,1375.89
1569990131.8775532,1353.22
1569990131.877702,1358.43
1569990131.910494,1349.65
1569990131.9107351,1345.62
1569990131.910921,1350.24
1569990131.9110892,1337.07
1569990131.9438684,1356.39
1569990131.9441817,1343.39
1569990131.9444263,1365.78
1569990131.9446716,1359.89
1569990131.9770896,1378.26
1569990131.977281,1389.8
1569990131.9774594,1388.12
1569990132.0106463,1411.01
1569990132.010957,1402.54
1569990132.0111134,1427.79
1569990132.0112488,1417.58
1569990132.0437562,1435.14
1569990132.0440912,1437.53
1569990132.044398,1439.25
1569990132.0770807,1449.89
1569990132.0774221,1439.15
1569990132.0776584,1459.83
1569990132.077866,1445.62
1569990132.1103961,1463.65
1569990132.110909,1453.9
1569990132.111316,1464.99
1569990132.143733,1469.41
1569990132.1441498,1464.63
1569990132.1444325,1476.95
1569990132.1446435,1461.22
1569990132.17702,1481.73
1569990132.177276,1466.47
1569990132.177513,1478.66
1569990132.210184,1471.15
1569990132.2104628,1476.12
1569990132.2107482,1483.24
1569990132.2109857,1468.2
1569990132.243509,1486.06
1569990132.2436936,1468.77
1569990132.2438715,1483.92
1569990132.2441566,1472.63
1569990132.276793,1481.29
1569990132.2769578,1484.74
1569990132.2770855,1477.64
1569990132.3101568,1489.16
1569990132.3104165,1472.41
1569990132.3106873,1491.72
1569990132.310915,1475.56
1569990132.3434317,1487.24
1569990132.3436427,1480.23
1569990132.3440259,1484.4
1569990132.376781,1492.44
1569990132.3770032,1480.03
1569990132.3771653,1494.54
1569990132.37792,1477.21
1569990132.4100235,1495.31
1569990132.410226,1480.2
1569990132.41036,1486.95
1569990132.4433,1484.09
1569990132.4435868,1482.05
1569990132.4438097,1493.61
1569990132.4440336,1476.27
1569990132.4765851,1495.37
1569990132.476801,1478.75
1569990132.4769144,1489.69
1569990132.509953,1483.1
1569990132.5104454,1486.73
1569990132.5107782,1496.11
1569990132.5109499,1483.32
1569990132.5431478,1498.57
1569990132.543316,1481.33
1569990132.543439,1499.3
1569990132.543547,1484.41
1569990132.5765553,1490.69
1569990132.576809,1488.83
1569990132.5770347,1485.96
1569990132.609647,1497.16
1569990132.6097956,1480.21
1569990132.6099148,1496.66
1569990132.610028,1478.89
1569990132.6430733,1493.27
1569990132.643287,1481.74
1569990132.643478,1484.45
1569990132.6763983,1487.6
1569990132.676663,1480.43
1569990132.6768649,1496.03
1569990132.6770384,1479.34
1569990132.709804,1496.92
1569990132.7100148,1482.42
1569990132.7101848,1488.22
1569990132.742921,1487.22
1569990132.7431326,1484.75
1569990132.7434042,1497.76
1569990132.7436771,1481.03
1569990132.7763953,1498.05
1569990132.7766654,1480.85
1569990132.7769487,1495.09
1569990132.8097687,1484.05
1569990132.8102615,1484.86
1569990132.8106835,1487.62
1569990132.810925,1479.61
1569990132.8428175,1495.7
1569990132.8429635,1477.51
1569990132.8430676,1494.85
1569990132.8432045,1479.93
1569990132.8761668,1491.01
1569990132.8763382,1483.71
1569990132.8764753,1480.59
1569990132.9094367,1488.99
1569990132.9097364,1477.08
1569990132.9099338,1494.3
1569990132.9101033,1477.94
1569990132.942782,1492.76
1569990132.9429495,1482.02
1569990132.94307,1481.67
1569990132.9759743,1485.08
1569990132.9761918,1476.53
1569990132.9763706,1493.18
1569990132.97656,1474.62
1569990133.0093954,1492.06
1569990133.0098062,1478.01
1569990133.010009,1489.05
1569990133.042908,1482.9
1569990133.0433357,1477.92
1569990133.0435183,1486.38
1569990133.0436733,1473.78
1569990133.0758424,1491.03
1569990133.0760953,1471.83
1569990133.0764155,1488.81
1569990133.1090815,1478.41
1569990133.1093593,1484.42
1569990133.109747,1481.79
1569990133.1101549,1473.08
1569990133.1424596,1486.51
1569990133.1426637,1471.34
1569990133.1427896,1488.54
1569990133.142906,1475.2
1569990133.1759074,1486.06
1569990133.176216,1479.98
1569990133.176466,1474.83
1569990133.2089782,1484.61
1569990133.2092016,1471.61
1569990133.209311,1489.18
1569990133.2094095,1470.1
1569990133.242379,1487.03
1569990133.2426572,1477.02
1569990133.2428613,1482.23
1569990133.27561,1480.1
1569990133.2757874,1470.23
1569990133.2759483,1483.6
1569990133.2760906,1467.0
1569990133.30934,1483.92
1569990133.3097425,1466.6
1569990133.3101976,1480.4
1569990133.3422294,1474.18
1569990133.3424504,1474.65
1569990133.3426654,1476.88
1569990133.342848,1463.75
1569990133.3755956,1479.97
1569990133.375896,1462.76
1569990133.3760855,1478.9
1569990133.4087248,1469.48
1569990133.4089754,1475.1
1569990133.4091823,1474.18
1569990133.4093606,1464.21
1569990133.4421093,1478.26
1569990133.4423792,1462.27
1569990133.4426582,1480.0
1569990133.4429402,1463.93
1569990133.4755142,1478.13
1569990133.4760172,1473.07
1569990133.4762194,1473.78
1569990133.5086575,1477.46
1569990133.508861,1464.71
1569990133.5090387,1480.96
1569990133.5092092,1463.17
1569990133.5419536,1478.26
1569990133.5421278,1464.77
1569990133.5422595,1478.78
1569990133.5751865,1484.38
1569990133.5753734,1488.01
1569990133.5755029,1506.37
1569990133.5756247,1501.62
1569990133.6086004,1528.95
1569990133.6088274,1522.81
1569990133.6090074,1546.05
1569990133.6421385,1549.78
1569990133.6427274,1555.66
1569990133.6430619,1564.72
1569990133.6433477,1555.34
1569990133.6753922,1573.4
1569990133.6756887,1556.34
1569990133.6758802,1571.14
1569990133.7084925,1555.6
1569990133.7087722,1562.84
1569990133.7090256,1558.79
1569990133.7092435,1551.05
1569990133.7419422,1554.13
1569990133.742341,1532.74
1569990133.7426722,1547.24
1569990133.7429757,1525.46
1569990133.7750797,1533.66
1569990133.775294,1519.71
1569990133.7754607,1521.5
1569990133.808426,1521.47
1569990133.8086777,1508.98
1569990133.8088584,1516.4
1569990133.8090491,1495.1
1569990133.8417704,1511.06
1569990133.8420346,1492.14
1569990133.842255,1499.18
1569990133.8749063,1496.97
1569990133.875121,1490.15
1569990133.8753126,1496.42
1569990133.8755546,1477.41
1569990133.9083476,1494.07
1569990133.9087481,1475.14
1569990133.9088728,1485.28
1569990133.941663,1473.25
1569990133.9418538,1476.15
1569990133.9420123,1478.49
1569990133.9421604,1466.43
1569990133.9748673,1476.03
1569990133.9751773,1456.32
1569990133.9756775,1472.88
1569990134.0080054,1455.3
1569990134.0082314,1463.1
1569990134.0084069,1457.13
1569990134.008586,1457.06
1569990134.0414112,1465.55
1569990134.0417264,1451.75
1569990134.0421228,1467.72
1569990134.04249,1450.37
1569990134.0748847,1466.3
1569990134.0751536,1452.25
1569990134.075313,1456.49
1569990134.1082885,1461.94
1569990134.1087866,1450.95
1569990134.109081,1462.71
1569990134.109374,1444.96
1569990134.1413975,1462.93
1569990134.1419811,1446.85
1569990134.1423686,1454.95
1569990134.1746643,1450.87
1569990134.1751301,1450.51
1569990134.1753423,1457.42
1569990134.1755393,1439.31
1569990134.2079813,1449.1
1569990134.2082813,1423.43
1569990134.2086935,1430.49
1569990134.2411315,1406.2
1569990134.2414281,1398.11
1569990134.2416341,1389.17
1569990134.2418535,1372.76
1569990134.2744725,1375.88
1569990134.274757,1352.1
1569990134.274899,1362.1
1569990134.3077369,1341.99
1569990134.308028,1353.17
1569990134.3082397,1343.22
1569990134.3084228,1343.52
1569990134.3413274,1357.35
1569990134.3416777,1346.35
1569990134.3419597,1368.69
1569990134.3421738,1358.53
1569990134.374449,1379.49
1569990134.3748143,1374.45
1569990134.3751092,1384.7
1569990134.407618,1391.26
1569990134.4078574,1392.46
1569990134.4080794,1412.46
1569990134.4083333,1400.44
1569990134.4408953,1423.85
1569990134.4410942,1414.51
1569990134.4412935,1431.49
1569990134.4743483,1427.34
1569990134.4746773,1430.86
1569990134.474837,1440.09
1569990134.474961,1434.7
1569990134.5076027,1455.39
1569990134.5078588,1439.29
1569990134.5081558,1459.68
1569990134.5408804,1451.18
1569990134.541112,1462.57
1569990134.541273,1459.61
1569990134.5414095,1455.72
1569990134.5740635,1472.81
1569990134.5743136,1457.42
1569990134.5745423,1476.8
1569990134.6073232,1463.57
1569990134.6076183,1477.39
1569990134.6078541,1469.9
1569990134.608146,1469.26
1569990134.6408243,1477.0
1569990134.641146,1468.15
1569990134.6415179,1486.85
1569990134.6417916,1469.57
1569990134.6740372,1487.94
1569990134.6742759,1476.32
1569990134.6746678,1485.11
1569990134.7076333,1480.9
1569990134.7078166,1474.44
1569990134.708087,1486.29
1569990134.7083957,1473.31
1569990134.740525,1491.61
1569990134.7407243,1473.9
1569990134.7409039,1490.19
1569990134.7738495,1482.91
1569990134.774167,1487.48
1569990134.7743676,1488.48
1569990134.7746315,1477.52
1569990134.8073773,1495.45
1569990134.8076751,1477.35
1569990134.8078878,1495.98
1569990134.8403919,1486.08
1569990134.8407254,1494.4
1569990134.8409195,1490.62
1569990134.841039,1482.96
1569990134.8737347,1494.72
1569990134.8739746,1481.12
1569990134.8741908,1498.31
1569990134.9069414,1480.48
1569990134.9072123,1496.93
1569990134.9073613,1490.22
1569990134.9075546,1493.52
1569990134.9404056,1494.63
1569990134.9407308,1482.84
1569990134.9410508,1498.17
1569990134.9413226,1481.83
1569990134.9736435,1499.15
1569990134.9739308,1483.89
1569990134.974252,1495.84
1569990135.006924,1493.36
1569990135.0072038,1492.21
1569990135.0074475,1498.96
1569990135.0076952,1484.42
1569990135.0401008,1501.15
1569990135.040229,1484.12
1569990135.0403314,1500.06
1569990135.0736637,1493.77
1569990135.074011,1496.06
1569990135.0741882,1497.85
1569990135.0743515,1486.06
1569990135.1069417,1501.14
1569990135.1071105,1483.6
1569990135.1072288,1500.3
1569990135.1402528,1485.33
1569990135.1404817,1496.74
1569990135.1406016,1495.07
1569990135.140709,1493.52
1569990135.1733384,1501.01
1569990135.1735182,1485.57
1569990135.1736884,1503.16
1569990135.2066462,1485.91
1569990135.206886,1500.44
1569990135.2071595,1488.73
1569990135.2074273,1495.9
1569990135.2399096,1498.86
1569990135.240075,1492.12
1569990135.2401967,1503.21
1569990135.2403047,1485.84
1569990135.273278,1502.08
1569990135.273542,1487.51
1569990135.2737286,1498.58
1569990135.3065543,1497.89
1569990135.3067603,1495.63
1569990135.3069484,1503.6
1569990135.3071234,1487.97
1569990135.3398438,1505.77
1569990135.3400319,1488.85
1569990135.340182,1503.16
1569990135.3730922,1491.73
1569990135.3732522,1498.74
1569990135.373367,1501.19
1569990135.3735232,1491.79
1569990135.4065545,1501.8
1569990135.406806,1483.03
1569990135.4069965,1501.1
1569990135.4396195,1483.82
1569990135.439767,1493.83
1569990135.4398959,1486.54
1569990135.4399962,1488.6
1569990135.472989,1496.44
1569990135.4731696,1483.48
1569990135.4733095,1498.77
1569990135.5062292,1482.21
1569990135.5063941,1495.74
1569990135.5065463,1484.74
1569990135.5067549,1490.87
1569990135.5396287,1494.5
1569990135.5398374,1485.83
1569990135.540069,1498.06
1569990135.5402145,1480.16
1569990135.5729115,1498.25
1569990135.5731385,1481.0
1569990135.573338,1489.85
1569990135.6061919,1482.47
1569990135.6064296,1483.47
1569990135.6066802,1491.28
1569990135.606889,1477.11
1569990135.639464,1492.82
1569990135.6396344,1476.54
1569990135.639768,1494.34
1569990135.6728935,1479.78
1569990135.6732764,1484.85
1569990135.6735096,1482.83
1569990135.673711,1477.97
1569990135.7060952,1489.27
1569990135.706312,1472.41
1569990135.7064986,1489.11
1569990135.7393067,1472.32
1569990135.7395535,1480.97
1569990135.7397616,1475.31
1569990135.739958,1475.87
1569990135.772647,1484.94
1569990135.7728827,1470.73
1569990135.7730856,1487.1
1569990135.805918,1471.24
1569990135.8061783,1487.98
1569990135.8063731,1473.87
1569990135.8065984,1478.6
1569990135.8392127,1477.62
1569990135.839373,1473.34
1569990135.8395207,1486.1
1569990135.8396552,1469.4
1569990135.8725917,1486.46
1569990135.8728578,1470.88
1569990135.8730664,1485.83
1569990135.9058232,1475.34
1569990135.9060524,1475.62
1569990135.9063623,1479.38
1569990135.906914,1470.33
1569990135.9391084,1486.82
1569990135.9392798,1468.29
1569990135.9393861,1485.58
1569990135.972465,1471.61
1569990135.97269,1475.37
1569990135.972875,1475.79
1569990135.9730527,1472.65
1569990136.00583,1488.15
1569990136.006108,1473.41
1569990136.006343,1494.07
1569990136.0389712,1482.34
1569990136.0391648,1499.27
1569990136.0393305,1492.2
1569990136.039498,1493.53
1569990136.0722368,1499.55
1569990136.0723982,1491.59
1569990136.07252,1508.29
1569990136.1055493,1489.32
1569990136.1058166,1505.89
1569990136.1060252,1491.87
1569990136.1062243,1502.03
1569990136.1388822,1495.71
1569990136.1391258,1489.7
1569990136.1393356,1498.41
1569990136.1395392,1485.06
1569990136.1721773,1502.85
1569990136.172337,1483.47
1569990136.1724856,1499.07
1569990136.2054734,1488.11
1569990136.2057056,1485.63
1569990136.2059073,1490.37
1569990136.2061057,1480.17
1569990136.238822,1496.47
1569990136.239048,1476.72
1569990136.2392535,1493.52
1569990136.2720816,1481.1
1569990136.272352,1490.69
1569990136.272569,1483.88
1569990136.2727652,1476.54
1569990136.3052945,1485.97
1569990136.3054535,1471.86
1569990136.3055828,1488.36
1569990136.3387082,1468.79
1569990136.3389804,1484.61
1569990136.3392003,1474.96
1569990136.3394144,1479.16
1569990136.372001,1477.23
1569990136.372271,1465.86
1569990136.3724759,1479.5
1569990136.4051855,1463.22
1569990136.405386,1480.3
1569990136.405529,1463.0
1569990136.4056764,1476.69
1569990136.438531,1471.82
1569990136.438695,1464.28
1569990136.4388244,1474.65
1569990136.4389467,1461.27
1569990136.4719086,1479.91
1569990136.472137,1461.2
1569990136.4723766,1476.96
1569990136.5050607,1468.59
1569990136.5051894,1472.59
1569990136.5052927,1472.47
1569990136.50539,1461.67
1569990136.5384145,1476.08
1569990136.5386658,1459.68
1569990136.5389154,1477.81
1569990136.5716605,1462.25
1569990136.5718558,1475.56
1569990136.5720727,1471.27
1569990136.572315,1471.11
1569990136.605012,1475.69
1569990136.6051836,1461.7
1569990136.6053126,1479.08
1569990136.6382601,1462.31
1569990136.63847,1478.43
1569990136.6386786,1465.1
1569990136.638836,1475.32
1569990136.6715443,1477.54
1569990136.6717203,1466.95
1569990136.6718528,1482.1
1569990136.7048376,1465.64
1569990136.7050548,1483.69
1569990136.7052426,1467.94
1569990136.7054455,1480.2
1569990136.7382147,1476.38
1569990136.7384548,1474.97
1569990136.738703,1480.08
1569990136.7389283,1466.01
1569990136.771488,1483.15
1569990136.771615,1465.75
1569990136.771713,1481.87
1569990136.8047214,1469.19
1569990136.8048937,1478.42
1569990136.8050377,1479.68
1569990136.8051755,1473.87
1569990136.8380375,1483.01
1569990136.838163,1465.14
1569990136.8382604,1483.86
1569990136.8713198,1466.8
1569990136.8714957,1478.71
1569990136.8716278,1469.28
1569990136.871753,1473.02
1569990136.9049149,1477.19
1569990136.905151,1461.12
1569990136.9053457,1477.81
1569990136.9380102,1460.05
1569990136.9384391,1475.48
1569990136.93876,1463.23
1569990136.9393313,1471.29
1569990136.971206,1473.29
1569990136.9713562,1466.87
1569990136.971472,1476.81
1569990137.0044806,1459.42
1569990137.004672,1477.95
1569990137.0047767,1460.44
1569990137.004874,1471.31
1569990137.0378,1462.26
1569990137.037937,1465.96
1569990137.038048,1472.67
1569990137.0381548,1461.43
1569990137.0710516,1475.2
1569990137.071248,1457.93
1569990137.0714202,1476.54
1569990137.1044407,1461.38
1569990137.1047306,1469.71
1569990137.104949,1466.33
1569990137.1051545,1465.49
1569990137.137834,1476.12
1569990137.1381109,1458.85
1569990137.1383467,1478.09
1569990137.170962,1461.05
1569990137.1711762,1471.87
1569990137.1713684,1464.08
1569990137.171552,1467.43
1569990137.2043126,1474.98
1569990137.2045522,1463.12
1569990137.2047577,1477.32
1569990137.2378275,1460.2
1569990137.2382817,1478.62
1569990137.2386878,1463.48
1569990137.238984,1470.49
1569990137.2708504,1467.5
1569990137.2710593,1465.69
1569990137.2712274,1477.28
1569990137.3042011,1462.39
1569990137.3045108,1480.3
1569990137.3047528,1463.54
1569990137.3057327,1478.9
1569990137.3378084,1466.92
1569990137.3380384,1469.58
1569990137.338227,1471.46
1569990137.3384051,1466.21
1569990137.370837,1481.89
1569990137.3710368,1465.29
1569990137.371215,1483.61
1569990137.404101,1469.01
1569990137.4042807,1475.46
1569990137.404449,1472.98
1569990137.404606,1470.15
1569990137.437475,1481.56
1569990137.4376647,1465.31
1569990137.437875,1482.2
1569990137.4706297,1464.76
1569990137.4707808,1479.38
1569990137.4709022,1467.62
1569990137.4710119,1470.03
1569990137.5040486,1472.56
1569990137.5043604,1466.03
1569990137.5046568,1481.51
1569990137.537169,1464.37
1569990137.5373182,1482.85
1569990137.5374455,1468.16
1569990137.5376036,1480.37
1569990137.570555,1471.72
1569990137.5707917,1468.51
1569990137.5710008,1475.23
