1569990311.920216,0.0
1569990311.9206717,0.0
1569990311.920989,0.0
1569990311.9211843,0.0
1569990311.953476,0.0
1569990311.9539118,0.0
1569990311.9540703,0.0
1569990311.9542,14.71
1569990311.9543035,14.71
1569990311.9864044,14.71
1569990311.9866,58.25
1569990311.986763,170.43
1569990311.9869087,392.98
1569990312.019793,621.86
1569990312.0200336,771.04
1569990312.02024,892.64
1569990312.0204391,990.54
1569990312.0529845,1075.56
1569990312.053177,1156.7
1569990312.0533445,1215.05
1569990312.0535655,1265.15
1569990312.0863726,1297.72
1569990312.0866811,1340.49
1569990312.0869117,1350.67
1569990312.119576,1379.37
1569990312.1198406,1392.85
1569990312.1203477,1405.52
1569990312.1205215,1422.02
1569990312.1528745,1427.16
1569990312.1530364,1447.35
1569990312.1531608,1448.72
1569990312.1861784,1468.09
1569990312.1863742,1465.02
1569990312.1865623,1475.76
1569990312.1867127,1478.07
1569990312.2195563,1477.3
1569990312.2197251,1483.49
1569990312.2198658,1474.71
1569990312.2528074,1485.05
1569990312.2529986,1474.41
1569990312.253103,1482.53
1569990312.2532003,1478.53
1569990312.2861247,1478.9
1569990312.286296,1479.52
1569990312.2864408,1470.33
1569990312.32023,1479.25
1569990312.3205812,1467.63
1569990312.3208277,1476.87
1569990312.321099,1465.81
1569990312.352694,1471.57
1569990312.352926,1468.79
1569990312.353081,1466.03
1569990312.3532252,1469.07
1569990312.3862875,1457.77
1569990312.3866136,1468.7
1569990312.3868325,1456.9
1569990312.4193628,1465.6
1569990312.4196694,1458.01
1569990312.4199262,1463.09
1569990312.4201465,1465.55
1569990312.4526436,1460.45
1569990312.452902,1468.11
1569990312.4531236,1458.6
1569990312.485758,1469.23
1569990312.4858928,1461.51
1569990312.4859958,1467.95
1569990312.4860938,1465.26
1569990312.5192032,1459.68
1569990312.519391,1458.55
1569990312.519529,1443.89
1569990312.5525582,1451.31
1569990312.5528862,1437.99
1569990312.5530193,1444.43
1569990312.5531368,1437.15
1569990312.5857964,1440.99
1569990312.5860078,1443.23
1569990312.586159,1437.43
1569990312.619023,1444.25
1569990312.6192925,1434.68
1569990312.6194994,1445.79
1569990312.6196778,1436.69
1569990312.6524506,1443.74
1569990312.6527412,1440.49
1569990312.6529233,1442.51
1569990312.6530666,1448.62
1569990312.6855874,1442.76
1569990312.685744,1453.53
1569990312.6858745,1445.05
1569990312.718816,1453.88
1569990312.7189553,1448.45
1569990312.7190657,1453.08
1569990312.7191684,1457.44
1569990312.7522042,1454.28
1569990312.7523916,1463.36
1569990312.7525182,1455.41
1569990312.7854338,1466.87
1569990312.7856188,1458.8
1569990312.7857385,1465.79
1569990312.7858493,1463.15
1569990312.8187375,1465.52
1569990312.8188994,1471.45
1569990312.819037,1464.94
1569990312.8523223,1474.5
1569990312.8527567,1465.39
1569990312.8530042,1475.96
1569990312.8531659,1468.57
1569990312.885647,1472.51
1569990312.885901,1472.13
1569990312.8861082,1469.17
1569990312.9187498,1472.68
1569990312.9190197,1461.74
1569990312.919225,1469.91
1569990312.9194207,1459.56
1569990312.9520516,1465.46
1569990312.9523802,1462.66
1569990312.952697,1464.93
1569990312.9530442,1471.65
1569990312.9853835,1466.25
1569990312.9858215,1477.7
1569990312.9862306,1470.26
1569990313.0186617,1481.81
1569990313.0188932,1475.65
1569990313.0190792,1480.93
1569990313.0192409,1480.82
1569990313.0518482,1480.22
1569990313.0520263,1488.19
1569990313.0521686,1479.12
1569990313.085043,1488.16
1569990313.0852318,1478.04
1569990313.0853586,1486.44
1569990313.0854826,1479.0
1569990313.1185744,1479.07
1569990313.1189718,1480.14
1569990313.1191375,1475.44
1569990313.1517081,1483.71
1569990313.1518793,1473.02
1569990313.1520014,1483.35
1569990313.1521282,1474.61
1569990313.1850417,1477.51
1569990313.1852374,1476.6
1569990313.1853874,1474.6
1569990313.2183022,1481.93
1569990313.2185705,1472.38
1569990313.2187147,1482.09
1569990313.2188435,1473.16
1569990313.2516797,1482.19
1569990313.2519708,1476.3
1569990313.2522352,1476.92
1569990313.2524655,1478.78
1569990313.284971,1474.8
1569990313.2851677,1483.9
1569990313.2853897,1474.02
1569990313.3181584,1485.56
1569990313.3183584,1478.9
1569990313.3185976,1486.69
1569990313.3190188,1483.78
1569990313.351456,1482.68
1569990313.3515952,1487.78
1569990313.3517082,1482.31
1569990313.3849494,1493.12
1569990313.3851519,1483.34
1569990313.3852706,1494.57
1569990313.3853762,1489.04
1569990313.4181514,1490.0
1569990313.4182885,1493.21
1569990313.4183903,1489.64
1569990313.4513083,1498.5
1569990313.45146,1488.03
1569990313.4515793,1498.64
1569990313.4516938,1491.81
1569990313.4847207,1498.16
1569990313.4849777,1493.79
1569990313.4852536,1492.31
1569990313.5179174,1498.22
1569990313.518104,1492.17
1569990313.5182197,1501.69
1569990313.518325,1492.16
1569990313.5513697,1503.22
1569990313.551685,1497.41
1569990313.5519109,1502.01
1569990313.552119,1500.26
1569990313.5846658,1494.61
1569990313.584886,1501.03
1569990313.5850556,1492.01
1569990313.6181812,1502.21
1569990313.6187482,1492.32
1569990313.6191404,1500.78
1569990313.6193724,1496.71
1569990313.6511903,1493.21
1569990313.6514237,1497.54
1569990313.651604,1489.8
1569990313.6844049,1499.04
1569990313.6847427,1488.4
1569990313.6849926,1498.27
1569990313.68512,1492.99
1569990313.7176726,1496.47
1569990313.7177975,1495.56
1569990313.7178986,1490.52
1569990313.7510788,1497.56
1569990313.7513578,1489.18
1569990313.7514977,1499.39
1569990313.7516165,1489.66
1569990313.7844121,1497.68
1569990313.7846491,1494.02
1569990313.7848284,1494.97
1569990313.8178596,1495.99
1569990313.8182085,1488.63
1569990313.8184695,1497.39
1569990313.81895,1487.01
1569990313.851341,1495.77
1569990313.8517168,1486.79
1569990313.8519378,1492.99
1569990313.8520827,1491.15
1569990313.8844464,1485.6
1569990313.884921,1493.38
1569990313.8854594,1484.45
1569990313.9176993,1494.34
1569990313.9180648,1484.01
1569990313.9183176,1491.5
1569990313.9186447,1487.1
1569990313.9509194,1487.77
1569990313.9511704,1488.45
1569990313.9513845,1480.01
1569990313.9841104,1488.16
1569990313.984298,1477.6
1569990313.9844415,1487.06
1569990313.9845798,1477.71
1569990314.0173583,1483.89
1569990314.017553,1482.1
1569990314.0177746,1479.69
1569990314.050609,1482.82
1569990314.0508199,1474.07
1569990314.0509613,1486.28
1569990314.0510955,1477.64
1569990314.083901,1486.85
1569990314.0840526,1480.63
1569990314.0841749,1485.82
1569990314.1173105,1486.76
1569990314.1176345,1477.26
1569990314.117845,1485.03
1569990314.117988,1472.75
1569990314.1507072,1481.0
1569990314.1509712,1471.85
1569990314.1511412,1477.37
1569990314.1512625,1475.1
1569990314.184076,1471.32
1569990314.184544,1474.43
1569990314.1847923,1464.83
1569990314.2173204,1475.44
1569990314.2175817,1465.66
1569990314.2177086,1473.46
1569990314.2178674,1466.73
1569990314.250733,1470.99
1569990314.2511668,1474.08
1569990314.251439,1469.9
1569990314.2838123,1477.31
1569990314.2841368,1467.98
1569990314.2843482,1479.03
1569990314.2845266,1469.57
1569990314.316976,1476.55
1569990314.3171706,1472.81
1569990314.3173845,1474.19
1569990314.3502803,1478.56
1569990314.3506463,1469.15
1569990314.3512053,1479.87
1569990314.3514452,1469.65
1569990314.3838353,1477.41
1569990314.384133,1470.3
1569990314.3842444,1474.36
1569990314.4169352,1476.32
1569990314.4172368,1470.94
1569990314.4174626,1477.3
1569990314.4176452,1467.21
1569990314.4503696,1479.1
1569990314.4507742,1469.36
1569990314.451041,1476.69
1569990314.451276,1472.02
1569990314.4836707,1474.02
1569990314.483872,1479.28
1569990314.4840522,1471.49
1569990314.516742,1481.15
1569990314.5169995,1470.78
1569990314.5172777,1481.72
1569990314.5174115,1473.34
1569990314.5501113,1477.8
1569990314.550345,1476.85
1569990314.550615,1475.55
1569990314.5833106,1482.99
1569990314.583475,1473.35
1569990314.5836344,1484.39
1569990314.583787,1474.17
1569990314.6168134,1480.15
1569990314.6171138,1476.82
1569990314.6176412,1479.58
1569990314.6498685,1486.29
1569990314.6502085,1479.98
1569990314.6504204,1490.9
1569990314.650629,1482.08
1569990314.6832507,1493.51
1569990314.6834617,1485.61
1569990314.6836214,1489.82
1569990314.7166126,1489.43
1569990314.7169914,1488.23
1569990314.7171645,1495.97
1569990314.7173648,1486.84
1569990314.7498739,1496.92
1569990314.7501934,1486.61
1569990314.7504163,1495.64
1569990314.7506757,1488.59
1569990314.783298,1489.29
1569990314.7835674,1490.4
1569990314.7837434,1485.61
1569990314.8164024,1494.04
1569990314.8166227,1483.14
1569990314.816957,1493.28
1569990314.8172402,1484.92
1569990314.8497477,1488.05
1569990314.849967,1487.03
1569990314.850113,1485.09
1569990314.8829618,1492.84
1569990314.883162,1483.07
1569990314.8833878,1493.56
1569990314.883642,1484.44
1569990314.9162283,1493.24
1569990314.9163554,1486.88
1569990314.916522,1487.9
1569990314.949639,1489.69
1569990314.949802,1485.4
1569990314.9499147,1494.9
1569990314.950018,1484.04
1569990314.9828951,1494.64
1569990314.9830627,1486.35
1569990314.9831903,1493.34
1569990315.0161552,1488.38
1569990315.0164568,1485.97
1569990315.0166833,1490.61
1569990315.0168998,1484.11
1569990315.0494876,1494.25
1569990315.0496936,1484.06
1569990315.0498648,1493.13
1569990315.0501325,1486.6
1569990315.0827997,1486.9
1569990315.0830328,1488.52
1569990315.086089,1484.16
1569990315.1160698,1494.1
1569990315.116374,1482.85
1569990315.116719,1493.69
1569990315.117037,1484.99
1569990315.149357,1491.19
1569990315.1495636,1486.14
1569990315.1497476,1483.78
1569990315.1826608,1488.44
1569990315.1828492,1481.68
1569990315.1829827,1492.13
1569990315.1831183,1480.66
1569990315.2159271,1490.96
1569990315.2161329,1484.16
1569990315.2162874,1488.45
1569990315.249175,1485.38
1569990315.2493467,1479.93
1569990315.2495031,1487.0
1569990315.2497296,1478.28
1569990315.282576,1489.01
1569990315.282709,1480.45
1569990315.28281,1487.13
1569990315.3157053,1482.49
1569990315.315845,1480.43
1569990315.3159468,1486.16
1569990315.316044,1479.89
1569990315.3491066,1490.68
1569990315.3492932,1478.92
1569990315.349451,1488.91
1569990315.3495748,1482.28
1569990315.3823946,1486.58
1569990315.3826444,1484.53
1569990315.382797,1479.62
1569990315.4157133,1486.81
1569990315.4159443,1477.93
1569990315.4161215,1489.21
1569990315.4162824,1479.08
1569990315.4494784,1488.63
1569990315.449909,1484.18
1569990315.4503195,1485.76
1569990315.4823463,1486.27
1569990315.4827366,1478.62
1569990315.4829338,1487.18
1569990315.4831066,1476.68
1569990315.5156536,1486.4
1569990315.5159163,1479.34
1569990315.5162532,1483.22
1569990315.5488105,1481.08
1569990315.5490153,1475.64
1569990315.5491853,1483.02
1569990315.5493445,1474.27
1569990315.5822594,1485.69
1569990315.5825622,1475.21
1569990315.5828016,1483.72
1569990315.615461,1478.97
1569990315.6157146,1480.06
1569990315.615937,1481.62
1569990315.616115,1475.0
1569990315.6488159,1484.57
1569990315.6490345,1474.28
1569990315.6491737,1484.19
1569990315.649283,1475.04
1569990315.6820452,1482.18
1569990315.6822102,1480.57
1569990315.6823463,1479.63
1569990315.715365,1482.2
1569990315.7155647,1472.9
1569990315.7157414,1485.32
1569990315.7159226,1474.81
1569990315.7488286,1483.79
1569990315.7491348,1478.72
1569990315.7493777,1479.99
1569990315.7821126,1482.04
1569990315.7823596,1474.92
1569990315.7827566,1483.56
1569990315.7830524,1473.62
1569990315.8153055,1483.33
1569990315.815596,1473.13
1569990315.8158503,1479.91
1569990315.8485043,1478.37
1569990315.8487113,1477.04
1569990315.848887,1481.62
1569990315.849017,1471.57
1569990315.8817782,1482.36
1569990315.881916,1471.35
1569990315.882033,1479.02
1569990315.9150229,1471.88
1569990315.9151917,1477.41
1569990315.915319,1478.46
1569990315.915444,1472.88
1569990315.9483337,1479.14
1569990315.948465,1469.5
1569990315.9485676,1481.35
1569990315.948665,1471.54
1569990315.9816797,1478.63
1569990315.9819152,1477.65
1569990315.98212,1476.09
1569990316.0149577,1480.19
1569990316.015109,1470.88
1569990316.0152318,1481.67
1569990316.0153484,1471.25
1569990316.0483625,1479.84
1569990316.0486543,1473.04
1569990316.0489068,1477.88
1569990316.0815856,1480.4
1569990316.0817904,1476.24
1569990316.0819643,1483.24
1569990316.0821273,1473.25
1569990316.1149755,1484.61
1569990316.1152372,1474.66
1569990316.1154425,1481.89
1569990316.1481464,1477.63
1569990316.1483545,1479.82
1569990316.1485255,1484.38
1569990316.1486883,1476.63
1569990316.1814013,1484.99
1569990316.1815543,1474.03
1569990316.181657,1484.76
1569990316.2150729,1475.24
1569990316.215278,1479.25
1569990316.2154264,1481.49
1569990316.2155733,1476.13
1569990316.248463,1483.3
1569990316.248791,1473.21
1569990316.2489767,1484.43
1569990316.2492127,1473.45
1569990316.2813609,1480.35
1569990316.2815158,1476.71
1569990316.2816436,1478.46
1569990316.3146687,1483.65
1569990316.3148484,1474.84
1569990316.3149962,1483.14
1569990316.3151305,1471.45
1569990316.3480794,1482.01
1569990316.3483906,1472.16
1569990316.348656,1475.01
1569990316.3812313,1473.32
1569990316.3814697,1471.45
1569990316.381655,1478.86
1569990316.381824,1468.88
1569990316.4146638,1479.11
1569990316.4149735,1468.23
1569990316.41526,1477.82
1569990316.4477375,1471.47
1569990316.4479308,1473.25
1569990316.4480784,1479.06
1569990316.4481995,1470.79
1569990316.4811146,1480.42
1569990316.4812527,1469.15
1569990316.4813592,1479.57
1569990316.5143266,1470.67
1569990316.5145864,1474.57
1569990316.5147395,1473.91
1569990316.5148706,1472.54
1569990316.5479057,1480.84
1569990316.5481763,1470.88
1569990316.5483294,1482.11
1569990316.548499,1472.48
1569990316.5810316,1482.63
1569990316.581275,1476.75
1569990316.58146,1477.8
1569990316.6142528,1479.71
1569990316.614491,1474.96
1569990316.6147692,1484.36
1569990316.6149993,1472.0
1569990316.6475654,1481.54
1569990316.647741,1472.57
1569990316.647882,1479.47
1569990316.680785,1474.27
1569990316.6809118,1471.37
1569990316.6810155,1478.96
1569990316.6811132,1468.72
1569990316.7141433,1479.12
1569990316.714456,1468.89
1569990316.7147837,1478.22
1569990316.7473872,1471.7
1569990316.7475183,1472.81
1569990316.7476416,1475.27
1569990316.7477405,1470.78
1569990316.7807212,1481.55
1569990316.7809176,1470.8
1569990316.781102,1482.75
1569990316.8139467,1474.82
1569990316.8141527,1482.44
1569990316.8143132,1478.42
1569990316.8144777,1476.36
1569990316.8472433,1481.83
1569990316.8473804,1474.6
1569990316.8474982,1485.29
1569990316.8476381,1473.27
1569990316.880565,1482.45
1569990316.8806915,1474.93
1569990316.8808317,1478.99
1569990316.913906,1477.29
1569990316.9141421,1470.81
1569990316.9143748,1478.91
1569990316.9148304,1466.98
1569990316.9473445,1478.57
1569990316.947641,1470.68
1569990316.9479444,1477.27
1569990316.9804943,1473.51
1569990316.980735,1471.07
1569990316.9809422,1476.71
1569990316.9811354,1469.67
1569990317.0137935,1481.61
1569990317.013964,1470.32
1569990317.0141616,1481.75
1569990317.0470467,1476.29
1569990317.0472548,1480.38
1569990317.0474672,1479.2
1569990317.0476458,1474.3
1569990317.080479,1482.22
1569990317.0807896,1472.35
1569990317.081102,1483.53
1569990317.113618,1472.83
1569990317.1138237,1482.02
1569990317.1139843,1478.16
1569990317.1141431,1479.43
1569990317.1469338,1480.81
1569990317.147095,1473.4
1569990317.1472342,1484.55
1569990317.1473894,1472.53
1569990317.1802695,1481.01
1569990317.1804423,1469.08
1569990317.1806133,1466.67
1569990317.213491,1455.61
1569990317.213647,1439.06
1569990317.213766,1437.94
1569990317.2138786,1416.63
1569990317.246825,1416.77
1569990317.2470465,1398.08
1569990317.247215,1399.01
1569990317.2802534,1389.57
1569990317.2805598,1388.37
1569990317.2807608,1389.07
1569990317.2809556,1382.08
1569990317.3134334,1393.73
1569990317.3136218,1386.22
1569990317.313776,1400.4
1569990317.3467994,1394.9
1569990317.3470435,1407.26
1569990317.347252,1410.98
1569990317.3474522,1412.5
1569990317.380079,1421.15
1569990317.3803346,1415.99
1569990317.3805723,1431.65
1569990317.4133031,1424.77
1569990317.4135246,1437.14
1569990317.4137218,1436.74
1569990317.4139128,1440.69
1569990317.44662,1445.88
1569990317.4468307,1441.42
1569990317.4470303,1453.51
1569990317.4471822,1445.92
1569990317.479942,1458.62
1569990317.4801178,1451.03
1569990317.4802709,1460.58
1569990317.5133877,1461.97
1569990317.5135386,1461.67
1569990317.5136702,1468.11
1569990317.5138056,1460.22
1569990317.5465357,1473.17
1569990317.546708,1464.86
1569990317.5468407,1475.84
1569990317.5797822,1470.34
1569990317.5799708,1477.67
1569990317.580127,1482.05
1569990317.5802872,1478.43
1569990317.6131554,1486.06
1569990317.613332,1476.04
1569990317.6134844,1487.1
1569990317.646403,1478.59
1569990317.6466196,1486.14
1569990317.6467566,1485.84
1569990317.6468928,1484.14
1569990317.6797695,1488.65
1569990317.680044,1479.43
1569990317.6802843,1491.29
1569990317.712943,1480.76
1569990317.7131429,1490.08
1569990317.7133017,1484.22
1569990317.7134535,1489.82
1569990317.7461975,1493.24
1569990317.7463949,1489.27
1569990317.7466803,1496.59
1569990317.7468226,1486.7
1569990317.779522,1498.86
1569990317.7797277,1488.84
1569990317.7798684,1495.51
1569990317.812821,1490.41
1569990317.813007,1490.81
1569990317.813161,1494.29
1569990317.8132932,1487.41
1569990317.8461661,1500.66
1569990317.846346,1495.74
1569990317.8465672,1512.17
1569990317.8794413,1512.4
1569990317.8796272,1526.07
1569990317.8797622,1537.01
1569990317.879897,1539.22
1569990317.9127252,1554.01
1569990317.9129074,1550.46
1569990317.913057,1566.73
1569990317.9460752,1560.21
1569990317.946287,1568.96
1569990317.9464514,1564.05
1569990317.946641,1564.67
1569990317.9793408,1567.09
1569990317.9795246,1557.77
1569990317.9796627,1564.67
1569990318.0125263,1551.23
1569990318.0127072,1560.15
1569990318.0128548,1546.28
1569990318.0129983,1546.95
1569990318.0459056,1541.42
1569990318.0461223,1536.92
1569990318.046349,1539.79
1569990318.046586,1527.05
1569990318.0792024,1534.14
1569990318.0794137,1519.0
1569990318.079586,1522.95
1569990318.1125002,1514.57
1569990318.1127849,1513.59
1569990318.112983,1514.81
1569990318.1131728,1504.75
1569990318.145824,1511.61
1569990318.1460428,1497.19
1569990318.1462317,1507.66
1569990318.1791158,1494.16
1569990318.1792748,1496.65
1569990318.1794105,1491.42
1569990318.179542,1489.38
1569990318.2124567,1494.8
1569990318.2126539,1482.87
1569990318.2128158,1492.08
1569990318.2456238,1478.31
1569990318.2457902,1488.77
1569990318.2459266,1478.05
1569990318.2460442,1479.58
1569990318.2790196,1478.5
1569990318.2792485,1474.41
1569990318.2794116,1484.16
1569990318.3122463,1471.86
1569990318.3124201,1483.92
1569990318.3125572,1472.89
1569990318.3126903,1479.0
1569990318.3456256,1476.37
1569990318.345907,1475.62
1569990318.346147,1482.46
1569990318.3464024,1471.44
1569990318.378855,1481.59
1569990318.3789911,1469.42
1569990318.3791025,1480.71
1569990318.4121199,1471.12
1569990318.4122887,1473.35
1569990318.4124234,1473.35
1569990318.4125729,1468.49
1569990318.4454153,1477.3
1569990318.4455664,1465.04
1569990318.4457068,1476.61
1569990318.4788826,1466.34
1569990318.4791045,1475.41
1569990318.4792998,1468.82
1569990318.479464,1467.27
1569990318.5120437,1470.59
1569990318.5122201,1464.04
1569990318.5123723,1475.21
1569990318.5461712,1462.59
1569990318.5463672,1474.32
1569990318.5465531,1465.04
1569990318.546702,1467.06
1569990318.5786517,1467.69
1569990318.5788505,1464.23
1569990318.5790513,1474.24
1569990318.6118803,1461.91
1569990318.612156,1473.95
1569990318.6123924,1463.44
1569990318.6126027,1472.37
1569990318.6451757,1465.84
1569990318.645351,1465.42
1569990318.6454954,1469.62
1569990318.6456323,1463.76
1569990318.6784527,1475.48
1569990318.678625,1462.64
1569990318.6787295,1475.06
1569990318.7117143,1466.49
1569990318.7119005,1473.27
1569990318.7120302,1469.6
1569990318.712154,1465.76
1569990318.7451725,1472.68
1569990318.7454624,1462.87
1569990318.7457182,1475.19
1569990318.7783463,1462.69
1569990318.778482,1474.09
1569990318.778633,1467.87
1569990318.7787364,1466.08
1569990318.8117127,1470.44
1569990318.8118813,1463.69
1569990318.8119924,1475.16
1569990318.8449569,1463.02
1569990318.8451111,1474.36
1569990318.8452253,1466.08
1569990318.845335,1471.71
1569990318.8782327,1468.01
1569990318.8783803,1463.28
1569990318.878499,1470.17
1569990318.911516,1461.72
1569990318.9117782,1473.75
1569990318.9120162,1461.5
1569990318.9122467,1473.04
1569990318.9447935,1466.53
1569990318.9449542,1470.12
1569990318.9450946,1469.59
1569990318.9452271,1462.73
1569990318.9783256,1472.18
1569990318.9787188,1460.86
1569990318.9790304,1474.16
1569990319.011387,1464.43
1569990319.0115674,1476.32
1569990319.0117295,1473.9
1569990319.011877,1470.14
1569990319.0447392,1478.24
1569990319.0449479,1469.22
1569990319.0451348,1481.76
1569990319.0782273,1468.37
1569990319.0784802,1479.32
1569990319.0787466,1472.46
1569990319.0788865,1475.68
1569990319.1112936,1475.07
1569990319.111468,1467.72
1569990319.1116178,1477.2
1569990319.144718,1466.33
1569990319.1449566,1478.7
1569990319.1451173,1467.2
1569990319.145273,1477.2
1569990319.1781876,1474.55
1569990319.178388,1474.29
1569990319.1786308,1477.63
1569990319.2113028,1468.54
1569990319.2115028,1480.15
1569990319.2116516,1469.16
1569990319.211788,1479.24
1569990319.2445095,1470.12
1569990319.244679,1475.51
1569990319.2448163,1475.27
1569990319.2449353,1467.32
1569990319.277928,1476.36
1569990319.2781487,1466.05
1569990319.2783396,1475.56
1569990319.311048,1461.99
1569990319.3112452,1462.77
1569990319.3113678,1451.49
1569990319.3114674,1442.15
1569990319.3443546,1434.15
1569990319.3445258,1414.13
1569990319.3446717,1417.26
1569990319.37764,1396.92
1569990319.377796,1398.34
1569990319.3779151,1383.92
1569990319.3780284,1384.65
1569990319.4113262,1382.2
1569990319.411491,1377.52
1569990319.411609,1383.91
1569990319.4441974,1374.94
1569990319.4443512,1389.48
1569990319.4444745,1381.43
1569990319.4445922,1393.82
1569990319.4775796,1391.44
1569990319.4778278,1399.03
1569990319.4780521,1407.13
1569990319.51081,1402.64
1569990319.5110314,1418.06
1569990319.5111623,1411.85
1569990319.5113008,1425.79
1569990319.5441747,1420.46
1569990319.5443423,1430.46
1569990319.5444787,1435.62
1569990319.5446084,1434.47
1569990319.577505,1444.75
1569990319.577663,1438.19
1569990319.5777946,1452.89
1569990319.6107697,1444.83
1569990319.6110015,1455.31
1569990319.611204,1452.33
1569990319.6113968,1456.81
1569990319.644016,1462.11
1569990319.6441636,1456.7
1569990319.644291,1467.89
1569990319.677241,1459.12
1569990319.6774156,1471.76
1569990319.677564,1464.04
1569990319.6777058,1470.93
1569990319.7106144,1469.1
1569990319.7107916,1469.89
1569990319.7109365,1477.28
1569990319.7438765,1467.99
1569990319.7440863,1480.81
1569990319.7442312,1471.61
1569990319.7443674,1480.06
1569990319.7771888,1475.39
1569990319.7773895,1478.98
1569990319.7775638,1484.44
1569990319.8104393,1477.91
1569990319.8106654,1487.08
1569990319.8108048,1476.58
1569990319.8109298,1488.39
1569990319.843742,1480.12
1569990319.8439238,1486.69
1569990319.8441145,1484.72
1569990319.8442547,1484.46
1569990319.8772244,1491.22
1569990319.8775945,1482.31
1569990319.877897,1492.55
1569990319.9103503,1482.01
1569990319.9105995,1492.19
1569990319.9107873,1484.16
1569990319.9109645,1486.46
1569990319.9436643,1486.79
1569990319.943838,1483.77
1569990319.9439855,1492.57
1569990319.9769163,1481.94
1569990319.9770708,1493.4
1569990319.9771848,1483.97
1569990319.9773421,1488.99
1569990320.0102415,1486.84
1569990320.010402,1486.06
1569990320.010579,1494.53
1569990320.0435238,1488.73
1569990320.043694,1505.19
1569990320.0438187,1502.57
1569990320.0439374,1519.65
1569990320.0768118,1521.71
1569990320.0770314,1534.25
1569990320.0772398,1542.34
1569990320.1100652,1548.7
1569990320.1102538,1566.65
1569990320.1104043,1562.08
1569990320.110591,1579.62
1569990320.1434188,1574.27
1569990320.1436422,1585.28
1569990320.1438596,1579.95
1569990320.1440566,1577.95
1569990320.1767497,1578.74
1569990320.1769857,1568.37
1569990320.1771874,1573.36
1569990320.2099783,1556.42
1569990320.2101345,1561.59
1569990320.2102728,1547.15
1569990320.2103958,1543.06
1569990320.243291,1539.32
1569990320.243456,1531.08
1569990320.24361,1535.72
1569990320.2766283,1521.25
1569990320.2768989,1528.41
1569990320.2770402,1515.2
1569990320.277169,1521.5
1569990320.3099737,1512.67
1569990320.3102276,1509.63
1569990320.3104687,1510.61
1569990320.343275,1501.56
1569990320.3435647,1509.32
1569990320.3437274,1494.97
1569990320.3438869,1504.24
1569990320.3765073,1493.79
1569990320.3769174,1498.26
1569990320.3773575,1492.5
1569990320.4097154,1487.47
1569990320.4099538,1493.13
1569990320.410111,1483.47
1569990320.4102607,1492.83
1569990320.4431777,1481.62
1569990320.4433408,1489.96
1569990320.4434648,1481.83
1569990320.443586,1480.67
1569990320.476492,1485.29
1569990320.4767227,1480.28
1569990320.4769354,1492.0
1569990320.509759,1479.78
1569990320.5099704,1490.68
1569990320.510182,1481.76
1569990320.5104012,1487.35
1569990320.5429137,1483.05
1569990320.5431342,1478.6
1569990320.5432734,1484.65
1569990320.5761864,1475.94
1569990320.5763514,1487.01
1569990320.5764995,1475.28
1569990320.576605,1485.16
1569990320.6095805,1478.09
1569990320.6097617,1480.6
1569990320.6099014,1478.82
1569990320.6428182,1471.72
1569990320.6431262,1480.24
1569990320.6432705,1469.99
1569990320.6434083,1480.87
1569990320.6766846,1472.22
1569990320.6768875,1477.77
1569990320.6771169,1473.5
1569990320.7093334,1468.28
1569990320.7094953,1474.37
1569990320.7096553,1465.18
1569990320.7098234,1475.86
1569990320.7427993,1463.71
1569990320.7430277,1473.62
1569990320.7432187,1467.2
1569990320.7433584,1470.22
1569990320.7760453,1469.62
1569990320.7762024,1462.87
1569990320.7764041,1471.84
1569990320.809332,1461.19
1569990320.8094807,1472.08
1569990320.8096004,1461.63
1569990320.809716,1469.95
1569990320.8427477,1466.18
1569990320.8429327,1465.9
1569990320.8431218,1468.01
1569990320.8759816,1458.72
1569990320.8763285,1469.05
1569990320.876656,1458.25
1569990320.87696,1468.11
1569990320.9091725,1462.52
1569990320.9093344,1465.44
1569990320.9094691,1465.59
1569990320.942458,1458.95
1569990320.9427342,1467.83
1569990320.9429314,1457.54
1569990320.9431114,1468.24
1569990320.975786,1458.14
1569990320.9759712,1466.39
1569990320.9760847,1463.87
1569990321.0091674,1463.38
1569990321.0093555,1466.5
1569990321.0095284,1458.28
1569990321.0097299,1469.42
1569990321.042319,1459.82
1569990321.0424852,1470.15
1569990321.0426466,1461.77
1569990321.0427685,1468.08
1569990321.075665,1468.55
1569990321.0758693,1465.88
1569990321.0760226,1472.0
1569990321.1089575,1462.46
1569990321.1091042,1474.51
1569990321.1092331,1464.17
1569990321.1093514,1472.14
1569990321.1423037,1469.27
1569990321.142557,1469.08
1569990321.1427455,1472.33
1569990321.1755326,1463.57
1569990321.1757712,1474.61
1569990321.1759129,1464.09
1569990321.1760247,1473.85
1569990321.2088835,1464.56
1569990321.209056,1470.09
1569990321.2092032,1470.4
1569990321.242186,1466.33
1569990321.2424588,1468.82
1569990321.2427227,1452.63
1569990321.2429814,1457.61
1569990321.275459,1436.26
1569990321.275659,1433.16
1569990321.2757866,1417.68
1569990321.308685,1410.31
1569990321.3089178,1404.07
1569990321.3091075,1391.77
1569990321.309228,1394.23
1569990321.3419404,1379.78
1569990321.3420906,1389.91
1569990321.3422124,1379.04
1569990321.3423285,1385.52
1569990321.3753784,1388.26
1569990321.3755379,1387.05
1569990321.3756692,1396.77
1569990321.4086657,1390.59
1569990321.408855,1405.59
1569990321.4089997,1399.42
1569990321.4091341,1412.11
1569990321.4418907,1410.01
1569990321.4420557,1417.69
1569990321.4421916,1426.27
1569990321.4752476,1423.22
1569990321.4754717,1436.16
1569990321.4756145,1429.95
1569990321.4757454,1444.46
1569990321.508592,1438.32
1569990321.5088205,1446.98
1569990321.508958,1446.79
1569990321.5417173,1450.49
1569990321.5418935,1459.8
1569990321.5420418,1453.36
1569990321.5421875,1465.72
1569990321.5751338,1457.88
1569990321.5753334,1470.39
1569990321.575486,1464.52
1569990321.6085458,1469.04
1569990321.608748,1474.38
1569990321.6088698,1468.96
1569990321.6089773,1479.08
1569990321.6419394,1470.08
1569990321.6421647,1482.31
1569990321.642303,1474.0
1569990321.6424332,1481.19
1569990321.6749554,1479.93
1569990321.6751082,1481.25
1569990321.675234,1488.73
1569990321.708563,1481.09
1569990321.7087352,1492.37
1569990321.708871,1482.76
1569990321.7090194,1493.41
1569990321.7415385,1485.11
1569990321.7416863,1486.97
1569990321.7418041,1486.7
1569990321.774778,1483.33
1569990321.7749267,1491.62
1569990321.775047,1480.31
1569990321.775165,1489.47
1569990321.808097,1482.2
1569990321.808259,1497.12
1569990321.8083854,1501.67
1569990321.8413699,1514.49
1569990321.841578,1534.91
1569990321.8417535,1537.21
1569990321.841925,1559.87
1569990321.8747895,1559.69
1569990321.8750317,1576.76
1569990321.8752437,1574.99
1569990321.9080265,1581.13
1569990321.9082143,1581.51
1569990321.9083428,1577.31
1569990321.9084606,1584.05
1569990321.9416227,1571.8
1569990321.9420564,1579.39
1569990321.9423413,1565.75
1569990321.9427004,1571.15
1569990321.975123,1560.97
1569990321.9753525,1556.35
1569990321.9754755,1555.74
1569990322.0078478,1546.12
1569990322.0080357,1552.58
1569990322.0081825,1537.78
1569990322.0083234,1544.98
1569990322.0411766,1533.08
1569990322.041363,1536.79
1569990322.0415022,1529.34
1569990322.0744948,1522.54
1569990322.0747304,1527.83
1569990322.0748804,1514.42
1569990322.0750175,1521.55
1569990322.1078553,1508.05
1569990322.1080158,1513.48
1569990322.10814,1504.06
1569990322.1410742,1501.18
1569990322.1413648,1502.56
1569990322.1416197,1494.89
1569990322.1418724,1503.57
1569990322.174398,1490.84
1569990322.174647,1500.92
1569990322.1747718,1491.17
1569990322.2075794,1496.08
1569990322.2077622,1490.28
1569990322.2079093,1485.05
1569990322.2080524,1489.62
1569990322.2408915,1479.83
1569990322.241028,1488.71
1569990322.241142,1476.13
1569990322.241249,1485.28
1569990322.2743096,1478.26
1569990322.2745643,1481.31
1569990322.2750447,1479.39
1569990322.3075628,1472.94
1569990322.3077352,1482.36
1569990322.3078744,1470.09
1569990322.3080091,1480.64
1569990322.3409028,1472.25
1569990322.3410957,1478.39
1569990322.3412557,1474.76
1569990322.3741465,1471.48
1569990322.3743114,1477.73
1569990322.374453,1469.29
1569990322.3746333,1479.62
1569990322.40741,1467.69
1569990322.4075828,1477.58
1569990322.4077575,1471.13
1569990322.4412477,1473.88
1569990322.4416118,1471.88
1569990322.4418993,1465.1
1569990322.4420977,1473.08
1569990322.4739978,1462.88
1569990322.4742043,1473.18
1569990322.4743862,1461.91
1569990322.507328,1469.61
1569990322.507526,1465.71
1569990322.507635,1466.77
1569990322.5077555,1469.03
1569990322.5406063,1460.88
1569990322.5407972,1472.37
1569990322.5409522,1461.72
1569990322.5411031,1471.99
1569990322.5739198,1466.41
1569990322.5740714,1470.34
1569990322.5741875,1469.96
1569990322.607226,1464.38
1569990322.607394,1473.43
1569990322.6075253,1464.09
1569990322.607654,1475.49
1569990322.6404045,1465.04
1569990322.6405325,1473.51
1569990322.6406343,1470.29
1569990322.673742,1470.95
1569990322.673901,1473.09
1569990322.674025,1464.1
1569990322.6741416,1473.61
1569990322.7071376,1462.38
1569990322.70732,1472.11
1569990322.7074723,1463.16
1569990322.740329,1469.34
1569990322.7405937,1468.68
1569990322.7407665,1466.42
1569990322.740931,1471.36
1569990322.773745,1461.88
1569990322.7739568,1473.59
1569990322.7741246,1463.34
1569990322.8069065,1471.61
1569990322.8071125,1467.97
1569990322.8072736,1467.72
1569990322.807442,1469.04
1569990322.8403118,1459.71
1569990322.840564,1469.59
1569990322.8407714,1458.86
1569990322.8409731,1469.03
1569990322.8735082,1459.94
1569990322.8736444,1466.32
1569990322.8737576,1466.6
1569990322.906786,1464.97
1569990322.9069123,1471.03
1569990322.9070141,1461.49
1569990322.9071097,1473.0
1569990322.9403248,1462.62
1569990322.9404984,1471.65
1569990322.940607,1465.5
1569990322.973382,1470.14
1569990322.9735324,1474.12
1569990322.9736557,1469.16
1569990322.9737732,1476.78
1569990323.0067384,1465.74
1569990323.0069382,1475.15
1569990323.0070786,1466.39
1569990323.0399892,1472.26
1569990323.040146,1471.78
1569990323.0402722,1468.74
1569990323.0403943,1473.72
1569990323.0732977,1463.74
1569990323.0734797,1475.1
1569990323.0736313,1464.45
1569990323.106716,1473.07
1569990323.1070325,1466.73
1569990323.1072903,1470.65
1569990323.1075382,1473.43
1569990323.140186,1467.36
1569990323.1404626,1475.24
1569990323.1406894,1465.34
1569990323.1409216,1476.76
1569990323.1731448,1465.3
1569990323.1732697,1467.09
1569990323.1733713,1457.66
1569990323.2070758,1449.58
1569990323.2072332,1444.43
1569990323.2073524,1426.84
1569990323.207466,1425.25
1569990323.2397084,1403.34
1569990323.2398438,1401.0
1569990323.239952,1387.86
1569990323.2731233,1384.6
1569990323.274022,1382.78
1569990323.2742236,1374.16
1569990323.2744102,1380.94
1569990323.306372,1371.22
1569990323.3065827,1384.21
1569990323.3067229,1377.27
1569990323.3397365,1387.27
1569990323.340037,1387.49
1569990323.34023,1393.47
1569990323.340364,1404.33
1569990323.3730657,1399.78
1569990323.3732417,1414.45
1569990323.37338,1409.07
1569990323.406266,1423.77
1569990323.4065607,1420.08
1569990323.4067838,1427.94
1569990323.4069715,1430.45
1569990323.4395986,1432.16
1569990323.43983,1444.31
1569990323.4400315,1437.67
1569990323.4401636,1452.47
1569990323.4728062,1445.92
1569990323.472988,1455.11
1569990323.4731414,1454.45
1569990323.506132,1457.93
1569990323.5062878,1466.35
1569990323.506405,1459.84
1569990323.5067272,1472.17
1569990323.5394197,1463.98
1569990323.5395632,1476.24
1569990323.539722,1470.04
1569990323.5726297,1474.47
1569990323.5727596,1475.02
1569990323.572858,1475.95
1569990323.5729518,1487.49
1569990323.6059787,1479.55
1569990323.606141,1492.48
1569990323.6062758,1484.25
1569990323.6392443,1494.78
1569990323.6394284,1488.82
1569990323.6395712,1490.33
1569990323.639706,1493.53
1569990323.6726155,1489.6
1569990323.6728005,1500.54
1569990323.6729283,1490.03
1569990323.7058136,1502.03
1569990323.7059853,1494.54
1569990323.7061198,1498.5
1569990323.7062488,1498.52
1569990323.7392056,1496.3
1569990323.739459,1504.84
1569990323.7397475,1494.77
1569990323.7399392,1505.28
1569990323.7726085,1494.77
1569990323.7728472,1503.35
1569990323.77299,1496.56
1569990323.805773,1495.65
1569990323.805953,1498.57
1569990323.8060994,1499.08
1569990323.8062406,1517.5
1569990323.8390362,1514.71
1569990323.839175,1537.61
1569990323.839288,1541.35
1569990323.8724415,1557.67
1569990323.8726025,1563.62
1569990323.8727446,1570.01
1569990323.87288,1580.23
1569990323.9058635,1576.86
1569990323.9060974,1589.04
1569990323.9062324,1576.76
1569990323.938881,1586.16
1569990323.9390469,1576.93
1569990323.939193,1572.97
1569990323.9393268,1572.06
1569990323.9722207,1562.16
1569990323.9724672,1567.19
1569990323.9725919,1552.65
1569990324.0055022,1559.22
1569990324.0056748,1546.03
1569990324.0058541,1549.22
1569990324.005996,1539.89
1569990324.0390453,1532.73
1569990324.0392911,1534.78
1569990324.0394692,1523.81
1569990324.0396347,1530.78
1569990324.07236,1516.32
1569990324.0727057,1523.3
1569990324.0730011,1512.95
1569990324.1054256,1514.8
1569990324.1056685,1510.3
1569990324.1058593,1502.02
1569990324.106044,1507.67
1569990324.1387646,1495.77
1569990324.1389494,1504.76
1569990324.13911,1492.4
1569990324.172099,1499.47
1569990324.1723647,1493.77
1569990324.1725338,1489.34
1569990324.1731145,1494.26
1569990324.2054176,1485.35
1569990324.2056887,1493.71
1569990324.2059038,1480.75
1569990324.238629,1489.61
1569990324.2388768,1481.97
1569990324.2390718,1484.74
1569990324.2391994,1481.85
1569990324.271936,1475.13
1569990324.2720973,1482.02
1569990324.2722201,1471.94
1569990324.3051221,1482.1
1569990324.3052802,1470.74
1569990324.3054025,1478.49
1569990324.3055203,1473.54
1569990324.3386219,1474.47
1569990324.338817,1475.14
1569990324.3389924,1467.0
1569990324.3391566,1476.32
1569990324.3718007,1465.53
1569990324.371941,1475.52
1569990324.3720598,1466.02
1569990324.4050496,1472.95
1569990324.4053085,1471.4
1569990324.405526,1465.39
1569990324.405729,1473.27
1569990324.4383645,1463.97
1569990324.438634,1474.77
1569990324.4388251,1464.08
1569990324.471874,1472.63
1569990324.4722376,1468.94
1569990324.4724247,1470.15
1569990324.4725811,1470.98
1569990324.5052388,1462.75
1569990324.5054328,1472.14
1569990324.5055504,1461.92
1569990324.5382087,1472.79
1569990324.538386,1464.08
1569990324.5385656,1471.61
1569990324.5387,1469.63
1569990324.5714822,1466.91
1569990324.5716565,1470.8
1569990324.5717967,1461.29
1569990324.60483,1472.67
1569990324.6050317,1462.74
1569990324.605178,1472.27
1569990324.605325,1465.58
1569990324.6381667,1470.54
1569990324.6384351,1472.03
1569990324.63871,1463.36
1569990324.638947,1472.18
1569990324.671981,1461.05
1569990324.672453,1470.44
1569990324.6727781,1460.46
1569990324.7049613,1465.94
1569990324.7053092,1463.9
1569990324.7055478,1461.21
1569990324.7057753,1465.86
1569990324.737994,1456.8
1569990324.7381706,1467.82
1569990324.738317,1457.14
1569990324.771256,1465.75
1569990324.7714279,1458.75
1569990324.7716086,1463.85
1569990324.7717524,1465.99
1569990324.8047774,1461.55
1569990324.8050337,1469.52
1569990324.805303,1459.87
1569990324.8380518,1472.03
1569990324.8383656,1462.15
1569990324.8384762,1468.96
1569990324.838622,1464.87
1569990324.8715136,1467.0
1569990324.8717086,1471.87
1569990324.8718538,1462.67
1569990324.904461,1474.45
1569990324.9046917,1464.25
1569990324.9048462,1472.69
1569990324.9049933,1465.77
1569990324.9377677,1469.54
1569990324.9380069,1471.38
1569990324.938193,1466.15
1569990324.9383671,1473.38
1569990324.9711916,1463.22
1569990324.9714518,1474.81
1569990324.9716284,1465.07
1569990325.0044928,1471.7
1569990325.004713,1467.01
1569990325.0048566,1468.47
1569990325.00499,1473.24
1569990325.03769,1465.67
1569990325.0378876,1474.87
1569990325.038041,1464.14
1569990325.0708838,1474.86
1569990325.0710268,1465.97
1569990325.0711436,1470.67
1569990325.0712566,1469.52
1569990325.1042833,1468.75
1569990325.104441,1475.77
1569990325.104576,1464.85
1569990325.137527,1476.28
1569990325.1377068,1465.93
1569990325.137845,1472.1
1569990325.1379733,1468.1
1569990325.1708083,1469.53
1569990325.1710212,1474.48
1569990325.171238,1466.48
1569990325.204121,1475.65
1569990325.204318,1465.13
1569990325.2044642,1475.57
1569990325.2046044,1466.88
1569990325.2374184,1471.11
1569990325.2376084,1470.08
1569990325.23773,1468.9
1569990325.2378442,1476.48
1569990325.2707756,1467.14
1569990325.2709708,1477.76
1569990325.2711065,1468.1
1569990325.3039668,1478.11
1569990325.3041794,1470.73
1569990325.306862,1471.61
1569990325.306978,1472.72
1569990325.3373804,1467.94
1569990325.3376186,1476.66
1569990325.3378198,1465.65
1569990325.3706439,1475.97
1569990325.3708797,1466.7
1569990325.3710694,1469.84
1569990325.3712618,1468.29
1569990325.403999,1466.24
1569990325.4041855,1473.58
1569990325.4042976,1463.66
1569990325.4373078,1474.5
1569990325.437615,1465.24
1569990325.4378424,1475.26
1569990325.4380498,1469.51
1569990325.4704955,1471.31
1569990325.4706955,1473.64
1569990325.470866,1470.01
1569990325.5039525,1480.14
1569990325.504307,1469.28
1569990325.504432,1480.51
1569990325.5046353,1472.06
1569990325.5370812,1479.43
1569990325.537253,1474.32
1569990325.5373933,1472.5
1569990325.5375288,1477.49
1569990325.570404,1471.27
1569990325.5705853,1481.98
1569990325.570698,1472.59
1569990325.6036503,1482.4
1569990325.6039293,1476.04
1569990325.604116,1476.83
1569990325.6042747,1478.24
1569990325.6371713,1472.9
1569990325.6375678,1481.89
1569990325.6378863,1470.14
1569990325.6702528,1480.15
1569990325.6705453,1470.53
1569990325.6707745,1477.06
1569990325.670991,1472.24
1569990325.703515,1470.19
1569990325.7036695,1475.39
1569990325.7037988,1468.86
1569990325.7368453,1479.55
1569990325.7370906,1468.9
1569990325.7372794,1480.22
1569990325.7374628,1473.77
1569990325.7702327,1478.44
1569990325.770446,1476.35
1569990325.7706335,1471.56
1569990325.803368,1479.14
1569990325.8035595,1470.47
1569990325.8036888,1481.67
1569990325.8038104,1472.86
1569990325.8366966,1479.8
1569990325.8369129,1475.1
1569990325.8371007,1472.85
1569990325.8372824,1478.06
1569990325.8701327,1470.67
1569990325.8704166,1480.9
1569990325.8707147,1469.4
1569990325.9033866,1479.8
1569990325.9037075,1473.45
1569990325.903966,1478.22
1569990325.904205,1476.7
1569990325.9368095,1471.98
1569990325.9370806,1479.77
1569990325.9372897,1471.15
1569990325.9700122,1481.73
1569990325.9703581,1470.85
1569990325.970593,1479.8
1569990325.970915,1475.72
1569990326.0033038,1477.36
1569990326.0038242,1477.52
1569990326.0040276,1469.98
1569990326.0364585,1478.78
1569990326.0366852,1468.27
1569990326.036858,1478.63
1569990326.0370421,1472.04
1569990326.069759,1476.09
1569990326.0699632,1474.23
1569990326.0701048,1468.92
1569990326.1031988,1476.32
1569990326.1035137,1467.05
1569990326.1037235,1478.12
1569990326.1040578,1467.48
1569990326.1364493,1476.18
1569990326.1367555,1471.64
1569990326.136993,1472.92
1569990326.137213,1474.81
1569990326.1699367,1467.64
1569990326.1702344,1477.27
1569990326.1704087,1467.68
1569990326.2032163,1478.3
1569990326.2035613,1469.21
1569990326.2037015,1476.29
1569990326.2038085,1475.05
1569990326.2366905,1473.83
1569990326.2372124,1477.64
1569990326.2374525,1468.88
1569990326.2696033,1479.8
1569990326.2703671,1469.57
1569990326.2707326,1478.51
1569990326.2711022,1474.4
1569990326.3033311,1475.7
1569990326.3036225,1477.04
1569990326.3038247,1469.21
1569990326.3362114,1478.63
1569990326.336494,1468.77
1569990326.3367414,1479.12
1569990326.3369262,1469.89
1569990326.3694508,1476.7
1569990326.3696687,1474.76
1569990326.3700185,1472.5
1569990326.4028308,1476.36
1569990326.4030313,1467.59
1569990326.403295,1478.84
1569990326.4035501,1468.63
1569990326.4361587,1478.01
1569990326.436383,1470.66
1569990326.436592,1475.34
1569990326.4367993,1476.9
1569990326.4693553,1472.29
1569990326.4696054,1478.65
1569990326.4697766,1468.72
1569990326.5026984,1480.35
1569990326.5029812,1470.57
1569990326.503197,1477.35
1569990326.5033593,1476.34
1569990326.5360293,1474.66
1569990326.5363529,1478.38
1569990326.5366056,1469.1
1569990326.569283,1480.11
1569990326.569585,1469.18
1569990326.5698583,1477.67
1569990326.5700498,1470.45
1569990326.60329,1475.04
1569990326.6035814,1477.29
1569990326.6040068,1472.78
1569990326.635892,1479.7
1569990326.6363788,1469.76
1569990326.636786,1480.9
1569990326.6371765,1470.21
1569990326.6690664,1476.27
1569990326.6692872,1471.62
1569990326.669504,1473.02
1569990326.7024856,1476.87
1569990326.7030208,1469.44
1569990326.7032802,1478.45
1569990326.703416,1468.85
1569990326.7357087,1479.69
1569990326.7359426,1471.23
1569990326.7361279,1475.28
1569990326.7363229,1476.77
1569990326.769204,1471.32
1569990326.7693584,1477.28
1569990326.769519,1466.47
1569990326.8023336,1476.57
1569990326.8026946,1465.26
1569990326.8028593,1470.54
1569990326.8030267,1465.17
1569990326.8355904,1465.87
1569990326.8358233,1469.41
1569990326.8360004,1461.87
1569990326.868826,1470.37
1569990326.8690574,1459.71
1569990326.8693297,1469.98
1569990326.8699408,1460.57
1569990326.902328,1464.12
1569990326.9026268,1462.14
1569990326.9031312,1461.43
1569990326.9354067,1467.96
1569990326.9356818,1459.32
1569990326.935925,1469.59
1569990326.9361715,1459.24
1569990326.9687023,1468.06
1569990326.96891,1460.31
1569990326.9690845,1461.61
1569990327.0019958,1465.51
1569990327.0023246,1458.3
1569990327.0028074,1466.89
1569990327.0032911,1456.84
1569990327.0357125,1467.11
1569990327.036338,1458.1
1569990327.0365777,1462.11
1569990327.036846,1460.34
1569990327.0687687,1459.22
1569990327.069482,1465.75
1569990327.069764,1456.83
1569990327.1018176,1466.6
1569990327.1020186,1456.3
1569990327.1021783,1465.0
1569990327.1023777,1457.43
1569990327.1365747,1458.48
1569990327.1367412,1458.67
1569990327.1368706,1454.15
1569990327.1685026,1462.07
1569990327.1687615,1451.73
1569990327.1690044,1462.52
1569990327.169215,1454.36
1569990327.2018516,1462.55
1569990327.2021477,1457.2
1569990327.202407,1455.65
1569990327.2350762,1461.87
1569990327.2353594,1452.56
1569990327.2356274,1462.2
1569990327.2359211,1452.71
1569990327.2684414,1462.24
1569990327.268744,1454.62
1569990327.269008,1456.15
1569990327.301615,1457.19
1569990327.3019454,1453.74
1569990327.3022149,1462.67
1569990327.3024611,1451.74
1569990327.3348873,1459.18
1569990327.3350933,1445.57
1569990327.3352392,1447.69
1569990327.335347,1434.13
1569990327.3683312,1424.07
1569990327.3685813,1421.29
1569990327.3689592,1407.18
1569990327.4015486,1408.97
1569990327.4017644,1391.71
1569990327.4019225,1395.01
1569990327.4020884,1382.2
1569990327.4347742,1382.77
1569990327.4349353,1375.5
1569990327.43507,1368.76
1569990327.4681976,1375.63
1569990327.4685102,1365.36
1569990327.468779,1377.09
1569990327.4690409,1371.17
1569990327.5014384,1380.85
1569990327.5016317,1379.35
1569990327.501784,1382.68
1569990327.5347223,1390.13
1569990327.5349746,1388.57
1569990327.5351841,1403.11
1569990327.535419,1395.97
1569990327.5680735,1411.04
1569990327.5684214,1409.47
1569990327.5687273,1418.85
1569990327.6012385,1420.77
1569990327.6014292,1421.14
1569990327.601578,1431.6
1569990327.601718,1427.9
1569990327.6347194,1442.13
1569990327.634901,1435.07
1569990327.6350265,1448.02
1569990327.6351306,1446.17
1569990327.6679747,1451.93
1569990327.6681516,1456.35
1569990327.6682756,1453.59
1569990327.7011428,1466.51
1569990327.7013514,1458.34
1569990327.7015164,1471.73
1569990327.7016704,1467.55
1569990327.7344246,1474.87
1569990327.734648,1474.36
1569990327.734793,1472.23
1569990327.7677379,1479.96
1569990327.767915,1472.3
1569990327.7680442,1482.63
1569990327.76819,1472.13
1569990327.8011081,1481.57
1569990327.801309,1477.57
1569990327.8014681,1480.92
1569990327.8343763,1482.22
1569990327.8347533,1477.04
1569990327.8350363,1486.66
1569990327.8354542,1478.87
1569990327.8677866,1490.55
1569990327.8681397,1482.44
1569990327.8684196,1490.96
1569990327.900909,1489.45
1569990327.9011369,1489.65
1569990327.9013114,1492.79
1569990327.9014766,1484.69
1569990327.9341557,1495.68
1569990327.934284,1485.96
1569990327.9343865,1495.65
1569990327.9344842,1491.27
1569990327.9675913,1493.76
1569990327.9677987,1495.22
1569990327.9679954,1490.09
1569990328.0008016,1499.32
1569990328.0010123,1490.77
1569990328.0011897,1501.19
1569990328.0013723,1492.53
1569990328.0341923,1500.73
1569990328.0343516,1498.98
1569990328.0344758,1498.31
1569990328.0674133,1501.43
1569990328.0675943,1493.5
1569990328.067777,1504.05
1569990328.0679152,1493.98
1569990328.1007833,1502.44
1569990328.1009803,1494.79
1569990328.1011379,1500.67
1569990328.1339858,1502.65
1569990328.1343374,1499.97
1569990328.1346898,1506.07
1569990328.134861,1497.2
1569990328.1673646,1507.77
1569990328.167733,1498.67
1569990328.1680844,1505.55
1569990328.2005568,1503.61
1569990328.2008374,1502.75
1569990328.2010782,1506.2
1569990328.2013156,1497.78
1569990328.2338963,1507.85
1569990328.2341828,1497.43
1569990328.2344341,1505.98
1569990328.2347505,1498.41
1569990328.267174,1502.99
1569990328.2673256,1502.57
1569990328.2674372,1498.64
1569990328.300544,1507.54
1569990328.3009882,1503.58
1569990328.3012693,1520.52
1569990328.3015068,1519.63
1569990328.3338838,1537.13
1569990328.3341584,1540.03
1569990328.3343832,1552.49
1569990328.3670673,1565.58
1569990328.3672588,1565.96
1569990328.3674207,1581.41
1569990328.3675635,1576.22
1569990328.4004178,1587.43
1569990328.4005992,1580.44
1569990328.4007146,1583.96
1569990328.4336085,1583.38
1569990328.4338055,1577.49
1569990328.43404,1580.38
1569990328.4342263,1566.78
1569990328.4669676,1573.85
1569990328.467143,1558.91
1569990328.467278,1560.74
1569990328.5001907,1551.32
1569990328.5004358,1548.67
1569990328.5006368,1548.74
1569990328.5008357,1539.47
1569990328.533618,1544.45
1569990328.5339594,1530.56
1569990328.5342336,1538.66
1569990328.5344944,1526.19
1569990328.5668483,1527.45
1569990328.567072,1522.85
1569990328.5672612,1519.74
1569990328.6001291,1523.84
1569990328.600262,1513.68
1569990328.600445,1521.22
1569990328.600568,1508.84
1569990328.6340077,1512.94
1569990328.6344733,1506.81
1569990328.6347277,1508.83
1569990328.6667638,1513.63
1569990328.6669369,1506.73
1569990328.6670542,1514.34
1569990328.6672325,1503.43
1569990328.6999815,1512.87
1569990328.7001874,1502.44
1569990328.7003155,1505.41
1569990328.7332838,1502.11
1569990328.7335112,1500.11
1569990328.7336354,1506.02
1569990328.733749,1496.48
1569990328.76668,1505.53
1569990328.7669806,1494.58
1569990328.7672534,1503.06
1569990328.799822,1494.22
1569990328.8000686,1494.95
1569990328.8002687,1495.03
1569990328.8004968,1490.07
1569990328.8332794,1497.75
1569990328.833539,1486.35
1569990328.8337605,1495.68
1569990328.8339708,1485.73
1569990328.8666236,1488.48
1569990328.8668664,1485.66
1569990328.8670945,1483.27
1569990328.8997226,1489.11
1569990328.8998523,1479.05
1569990328.8999534,1488.34
1569990328.9000492,1478.26
1569990328.9330864,1487.04
1569990328.9332285,1478.92
1569990328.9333503,1479.9
1569990328.966336,1480.93
1569990328.9665751,1476.73
1569990328.9667153,1485.45
1569990328.9668233,1474.77
1569990328.9996357,1485.67
1569990328.9997787,1477.07
1569990328.9998863,1484.4
1569990329.0329175,1479.22
1569990329.033061,1477.61
1569990329.0331788,1481.01
1569990329.0332773,1473.53
1569990329.066365,1483.04
1569990329.0666635,1471.79
1569990329.0668733,1482.32
1569990329.099459,1475.15
1569990329.0996666,1476.02
1569990329.0998309,1477.68
1569990329.0999851,1472.89
1569990329.132881,1481.85
1569990329.1330812,1471.37
1569990329.13325,1482.05
1569990329.1334128,1473.7
1569990329.1662924,1480.85
1569990329.1666813,1476.35
1569990329.1669185,1474.84
1569990329.1993923,1479.54
1569990329.1995807,1473.19
1569990329.1997342,1483.28
1569990329.1998916,1472.21
1569990329.2326894,1482.38
1569990329.2328808,1475.19
1569990329.23303,1479.68
1569990329.265979,1477.34
1569990329.2661843,1473.43
1569990329.2663074,1481.02
1569990329.266412,1472.89
1569990329.2993124,1483.72
1569990329.2994888,1473.2
1569990329.2996151,1481.95
1569990329.33255,1476.75
1569990329.332693,1474.4
1569990329.3328,1479.24
1569990329.3328998,1472.41
1569990329.3659189,1482.46
1569990329.3661487,1470.98
1569990329.3663564,1480.52
1569990329.3990984,1473.42
1569990329.399287,1477.65
1569990329.399466,1475.75
1569990329.3999574,1471.28
1569990329.4332256,1478.68
1569990329.433558,1470.58
1569990329.43389,1481.77
1569990329.4341648,1471.71
1569990329.465728,1481.22
1569990329.465889,1477.17
1569990329.4660213,1479.0
1569990329.4990463,1480.24
1569990329.4992895,1473.65
1569990329.4994395,1482.93
1569990329.499593,1473.12
1569990329.532475,1483.15
1569990329.5327446,1474.2
1569990329.53297,1481.94
1569990329.5656044,1480.78
1569990329.5657616,1476.43
1569990329.565876,1484.5
1569990329.56598,1476.58
1569990329.598899,1487.28
1569990329.5990634,1475.1
1569990329.5991764,1478.55
1569990329.6321216,1466.88
1569990329.632273,1460.42
1569990329.6323905,1450.31
1569990329.6326063,1431.18
1569990329.6655717,1431.48
1569990329.6657412,1410.99
1569990329.6658647,1412.02
1569990329.698762,1396.95
1569990329.6989715,1397.72
1569990329.69914,1392.04
1569990329.6993036,1389.11
1569990329.7321742,1393.43
1569990329.732382,1385.94
1569990329.7325702,1399.17
1569990329.7327087,1392.45
1569990329.765777,1405.22
1569990329.766241,1401.84
1569990329.7664988,1410.96
1569990329.79888,1417.06
1569990329.7992246,1413.8
1569990329.7994914,1427.51
1569990329.7997448,1422.46
1569990329.8320532,1436.93
1569990329.8322752,1432.28
1569990329.8324423,1443.06
1569990329.8652976,1446.71
1569990329.8654752,1447.75
1569990329.8655994,1455.72
1569990329.8657038,1448.91
1569990329.8986034,1461.75
1569990329.8987787,1454.08
1569990329.8989067,1464.66
1569990329.9317884,1460.29
1569990329.9319673,1467.24
1569990329.9321234,1472.62
1569990329.9322605,1469.34
1569990329.9653783,1478.14
1569990329.9656684,1469.68
1569990329.9658847,1481.69
1569990329.998477,1474.02
1569990329.9987414,1482.26
1569990329.998879,1479.5
1569990329.9990056,1482.37
1569990330.0318038,1488.36
1569990330.0320454,1479.75
1569990330.0322137,1491.3
1569990330.0324626,1481.74
1569990330.0650916,1490.75
1569990330.065336,1485.48
1569990330.0655286,1489.93
1569990330.0982656,1492.61
1569990330.0984204,1487.49
1569990330.098593,1496.76
1569990330.0987165,1492.27
1569990330.131674,1509.43
1569990330.1319594,1509.65
1569990330.132127,1527.47
1569990330.164971,1533.72
1569990330.1651926,1547.63
1569990330.1653779,1564.39
1569990330.165546,1564.88
1569990330.1986837,1582.49
1569990330.1989725,1578.07
1569990330.199166,1591.34
1569990330.2316537,1583.49
1569990330.2319317,1585.8
1569990330.2321136,1582.85
1569990330.232369,1578.75
1569990330.264887,1583.11
1569990330.265115,1568.85
1569990330.2652779,1576.3
1569990330.2982473,1562.45
1569990330.2986536,1564.14
1569990330.2989428,1556.93
1569990330.2991939,1553.45
1569990330.3314204,1555.03
1569990330.331588,1543.65
1569990330.3317122,1548.56
1569990330.3318198,1533.99
1569990330.3647892,1541.2
1569990330.3650434,1529.05
1569990330.3652167,1528.03
1569990330.398026,1524.07
1569990330.3984053,1518.23
1569990330.3988097,1522.48
1569990330.399128,1510.48
1569990330.4313972,1517.77
1569990330.431702,1504.75
1569990330.431938,1510.93
1569990330.4645724,1500.78
1569990330.4647646,1498.04
1569990330.464893,1497.88
1569990330.4650145,1490.46
1569990330.4979646,1497.71
1569990330.4982176,1485.79
1569990330.498414,1494.61
1569990330.5311933,1484.38
1569990330.531376,1485.08
1569990330.531515,1483.22
1569990330.531625,1478.93
1569990330.5646937,1485.63
1569990330.5649939,1474.8
1569990330.5651236,1483.86
1569990330.5978875,1473.14
1569990330.598106,1481.27
1569990330.5983078,1474.23
1569990330.598471,1473.14
1569990330.6310637,1474.87
1569990330.631341,1469.33
1569990330.6315622,1477.85
1569990330.6316795,1466.07
1569990330.6645215,1476.2
1569990330.664738,1466.97
1569990330.6649022,1472.55
1569990330.6976376,1467.49
1569990330.6978106,1464.23
1569990330.6979325,1469.09
1569990330.6980433,1461.07
1569990330.7309394,1470.64
1569990330.7313197,1461.38
1569990330.7315743,1470.64
1569990330.7641735,1465.21
1569990330.764349,1465.43
1569990330.764489,1468.2
1569990330.764622,1462.3
1569990330.7975998,1471.89
1569990330.7977943,1461.08
1569990330.7979393,1472.14
1569990330.8311024,1464.04
1569990330.8313222,1469.83
1569990330.8314552,1466.38
1569990330.8315802,1463.6
1569990330.8641284,1469.63
1569990330.8643832,1462.19
1569990330.8645737,1472.79
1569990330.8973832,1462.05
1569990330.8975546,1472.71
1569990330.89767,1467.55
1569990330.8977923,1471.38
1569990330.9308698,1470.42
1569990330.931099,1464.6
1569990330.931394,1471.91
1569990330.9316528,1461.72
1569990330.9642556,1471.68
1569990330.9647324,1463.26
1569990330.9656637,1468.83
1569990330.9973075,1465.1
1569990330.9977837,1461.36
1569990330.998115,1467.06
1569990330.9983454,1457.93
1569990331.030719,1468.17
1569990331.0310242,1457.45
1569990331.0313044,1467.09
1569990331.0638642,1461.76
1569990331.064147,1465.59
1569990331.064398,1465.41
1569990331.0646434,1459.52
1569990331.0971544,1468.09
1569990331.0973628,1459.48
1569990331.0975785,1470.49
1569990331.1304727,1460.61
1569990331.1307971,1469.17
1569990331.1310332,1466.44
1569990331.1312485,1467.01
1569990331.1637652,1468.9
1569990331.163938,1460.55
1569990331.1640663,1470.92
1569990331.196947,1461.32
1569990331.197146,1471.31
1569990331.197289,1466.07
1569990331.1974254,1468.79
1569990331.230266,1468.52
1569990331.2304306,1461.93
1569990331.230606,1470.18
1569990331.230728,1460.85
1569990331.263698,1471.34
1569990331.2639372,1461.1
1569990331.2641082,1468.61
1569990331.2969909,1465.66
1569990331.2974257,1465.13
1569990331.2977004,1467.54
1569990331.2978747,1459.5
1569990331.3302646,1470.04
1569990331.3306904,1459.78
1569990331.3310573,1469.19
1569990331.3635235,1461.35
1569990331.363821,1467.62
1569990331.3641572,1468.12
1569990331.3645072,1465.86
1569990331.3968885,1471.18
1569990331.3971844,1458.64
1569990331.3974285,1465.63
1569990331.4301758,1447.09
1569990331.4304898,1444.24
1569990331.4307225,1430.32
1569990331.4308336,1420.41
1569990331.463389,1412.61
1569990331.4635975,1394.08
1569990331.4637885,1397.45
1569990331.4966116,1379.71
1569990331.4967432,1383.06
1569990331.4968414,1371.67
1569990331.4969366,1374.44
1569990331.530012,1374.39
1569990331.53016,1371.44
1569990331.5302596,1379.89
1569990331.5303555,1374.28
1569990331.5634208,1389.1
1569990331.563769,1384.34
1569990331.5639396,1397.54
1569990331.5966716,1396.47
1569990331.5968637,1404.08
1569990331.597019,1411.94
1569990331.5972002,1408.75
1569990331.6300924,1421.48
1569990331.6305802,1415.87
1569990331.6309943,1429.66
1569990331.6631174,1424.18
1569990331.6633008,1433.45
1569990331.6634939,1438.81
1569990331.6636956,1437.63
1569990331.6967504,1446.8
1569990331.6970346,1439.81
1569990331.6972394,1453.44
1569990331.7297578,1445.97
1569990331.7299824,1455.5
1569990331.730175,1451.96
1569990331.7303493,1456.45
1569990331.763138,1462.33
1569990331.763366,1457.37
1569990331.7635036,1468.22
1569990331.7963476,1459.43
1569990331.7965326,1471.44
1569990331.7966368,1464.02
1569990331.796733,1470.39
1569990331.829555,1470.13
1569990331.8297217,1472.37
1569990331.829852,1480.66
1569990331.8299727,1473.16
1569990331.8629847,1484.81
1569990331.8631635,1476.43
1569990331.8632991,1487.07
1569990331.8964796,1479.93
1569990331.8967633,1482.33
1569990331.8969638,1487.8
1569990331.8971589,1481.68
1569990331.9297519,1491.58
1569990331.9301803,1481.73
1569990331.930467,1491.73
1569990331.9628413,1481.4
1569990331.9632409,1487.76
1569990331.963602,1490.71
1569990331.9640095,1498.23
1569990331.99632,1515.01
1569990331.996634,1515.2
1569990331.9968948,1536.13
1569990332.0295582,1536.48
1569990332.029876,1554.32
1569990332.030071,1555.95
1569990332.0302408,1565.58
1569990332.062672,1571.59
1569990332.0628464,1572.3
1569990332.0629983,1582.88
1569990332.0959659,1571.74
1569990332.0961728,1580.11
1569990332.0963025,1567.95
1569990332.09642,1573.16
1569990332.1292677,1563.16
1569990332.129442,1556.98
1569990332.1295552,1559.36
1569990332.1296594,1546.67
1569990332.1626976,1552.45
1569990332.16291,1538.25
1569990332.1630826,1544.42
1569990332.195861,1534.17
1569990332.196089,1532.46
1569990332.1962419,1530.3
1569990332.196407,1523.35
1569990332.2292745,1529.03
1569990332.2296765,1515.71
1569990332.2300944,1523.73
1569990332.2631524,1512.37
1569990332.263352,1517.18
1569990332.2634938,1508.4
1569990332.2636187,1503.8
1569990332.29588,1505.82
1569990332.2962172,1496.63
1569990332.2964897,1503.76
1569990332.329021,1490.33
1569990332.3292933,1499.65
1569990332.329513,1491.4
1569990332.329727,1495.2
1569990332.3624861,1491.21
1569990332.3627603,1486.05
1569990332.3628767,1494.18
1569990332.3956919,1481.57
1569990332.3958852,1491.73
1569990332.3960207,1483.84
1569990332.396144,1491.48
1569990332.4291198,1486.66
1569990332.429357,1484.13
1569990332.4295385,1488.3
1569990332.4297132,1480.71
1569990332.4623177,1490.44
1569990332.4627562,1478.52
1569990332.4629176,1488.23
1569990332.4954793,1480.12
1569990332.4957411,1484.18
1569990332.4959977,1481.8
1569990332.4961627,1476.94
1569990332.5289516,1483.9
1569990332.5293722,1474.34
1569990332.5296514,1484.21
1569990332.5621128,1473.01
1569990332.5623076,1481.16
1569990332.5628705,1475.3
1569990332.5631576,1476.72
1569990332.595389,1476.98
1569990332.5956757,1469.25
1569990332.5959468,1479.68
1569990332.6286263,1468.2
1569990332.6288326,1478.31
1569990332.6290047,1471.41
1569990332.629167,1475.34
1569990332.6619418,1472.6
1569990332.662139,1466.89
1569990332.6623416,1473.91
1569990332.695153,1464.19
1569990332.6953404,1474.5
1569990332.6955385,1463.46
1569990332.695855,1472.32
1569990332.7285607,1467.75
1569990332.7289321,1469.33
1569990332.729183,1470.77
1569990332.7293339,1463.34
1569990332.7618291,1472.96
1569990332.7621288,1463.4
1569990332.762358,1474.46
1569990332.7952147,1465.48
1569990332.7955408,1472.41
1569990332.7958195,1470.89
1569990332.7959979,1469.44
1569990332.8285382,1473.28
1569990332.8288872,1463.73
1569990332.829106,1473.96
1569990332.8616846,1463.54
1569990332.8618553,1471.69
1569990332.8619878,1467.35
1569990332.862117,1467.94
1569990332.8950913,1468.78
1569990332.8953912,1460.48
1569990332.8957179,1469.69
1569990332.9283082,1459.54
1569990332.928528,1469.35
1569990332.9287193,1460.25
1569990332.9289181,1467.27
1569990332.9616127,1466.45
1569990332.9618366,1464.69
1569990332.9620202,1469.07
1569990332.9949293,1459.84
1569990332.9952133,1470.92
1569990332.995428,1460.55
1569990332.9956088,1469.33
1569990333.028149,1462.08
1569990333.028308,1465.84
1569990333.0284553,1467.43
1569990333.0286012,1462.28
1569990333.0615907,1469.31
1569990333.061863,1459.6
1569990333.0620968,1469.73
1569990333.0947745,1461.28
1569990333.0949821,1467.95
1569990333.0951712,1467.57
1569990333.0954072,1465.14
1569990333.1280382,1469.16
1569990333.1281815,1459.0
1569990333.128302,1469.5
1569990333.16133,1458.42
1569990333.1615324,1466.49
1569990333.1617167,1459.42
1569990333.1618354,1462.98
1569990333.1946898,1464.73
1569990333.1948469,1458.94
1569990333.1949744,1465.31
1569990333.2279584,1454.86
1569990333.2282467,1465.65
1569990333.228495,1454.94
1569990333.2287319,1461.17
1569990333.2613018,1457.16
1569990333.2615614,1458.2
1569990333.2618077,1462.44
1569990333.2946665,1454.19
1569990333.294994,1462.6
1569990333.2952676,1452.0
1569990333.295516,1459.8
1569990333.3278925,1453.63
1569990333.328155,1458.15
1569990333.328373,1459.31
1569990333.3286023,1450.58
1569990333.361201,1451.07
1569990333.361465,1432.47
1569990333.3617084,1435.46
1569990333.3943949,1415.69
1569990333.3946476,1411.89
1569990333.3948326,1400.57
1569990333.3949828,1393.64
1569990333.4278202,1391.96
1569990333.4282289,1379.88
1569990333.428539,1384.71
1569990333.4609544,1372.21
1569990333.4611013,1382.29
1569990333.461247,1374.08
1569990333.4613872,1378.58
1569990333.494419,1379.32
1569990333.4947138,1380.71
1569990333.4948702,1391.8
1569990333.5276241,1385.33
1569990333.5279193,1399.08
1569990333.5281818,1393.61
1569990333.528442,1403.28
1569990333.5608726,1402.98
1569990333.5610485,1408.01
1569990333.5612793,1416.68
1569990333.5941465,1411.41
1569990333.5944126,1422.9
1569990333.5947022,1415.61
1569990333.5949137,1427.5
1569990333.6276116,1422.17
1569990333.6278985,1428.16
1569990333.6281035,1428.93
1569990333.6282668,1429.73
1569990333.66073,1438.98
1569990333.660935,1430.75
1569990333.6611083,1442.23
1569990333.6940749,1434.88
1569990333.6943166,1445.55
1569990333.6944766,1441.19
1569990333.6946743,1443.61
1569990333.727477,1446.1
1569990333.727663,1443.45
1569990333.727794,1454.0
1569990333.7607706,1444.62
1569990333.7611043,1456.54
1569990333.7612662,1449.6
1569990333.7613823,1453.88
1569990333.7938843,1453.53
1569990333.7940347,1452.45
1569990333.7941556,1460.64
1569990333.8271787,1452.13
1569990333.827363,1463.29
1569990333.8274872,1455.58
1569990333.8276048,1465.12
1569990333.860503,1460.08
1569990333.8606281,1461.78
1569990333.86073,1464.41
1569990333.8937902,1461.03
1569990333.894053,1470.81
1569990333.8942742,1460.64
1569990333.8944771,1471.99
1569990333.927164,1464.33
1569990333.9275167,1469.95
1569990333.9278898,1466.45
1569990333.9282155,1470.11
1569990333.9604855,1481.65
1569990333.960736,1485.93
1569990333.9609625,1507.68
1569990333.9938033,1506.46
1569990333.9940405,1527.58
1569990333.9942517,1531.04
1569990333.9944804,1539.24
1569990334.0270746,1545.03
1569990334.0273151,1544.04
1569990334.0275624,1554.43
1569990334.060301,1543.83
1569990334.060619,1553.28
1569990334.06098,1543.69
1569990334.0615685,1548.78
1569990334.093629,1541.93
1569990334.0938554,1536.85
1569990334.0941653,1538.97
1569990334.1269052,1529.48
1569990334.127154,1536.83
1569990334.127358,1523.49
1569990334.1275477,1530.07
1569990334.1602173,1520.32
1569990334.1604207,1522.2
1569990334.160605,1517.57
1569990334.19344,1509.9
1569990334.1936328,1514.76
1569990334.1937828,1503.55
1569990334.1939588,1511.24
1569990334.2268806,1499.39
1569990334.22718,1505.92
1569990334.227449,1499.54
1569990334.2277145,1494.58
1569990334.2601619,1497.82
1569990334.2604587,1488.59
1569990334.2607176,1496.57
1569990334.2933352,1484.57
1569990334.2936242,1492.51
1569990334.2938712,1485.11
1569990334.2940512,1488.29
1569990334.3266459,1485.87
1569990334.3268073,1480.14
1569990334.3269913,1486.65
1569990334.3599849,1477.14
1569990334.3601856,1486.82
1569990334.3603387,1476.38
1569990334.3605163,1483.93
1569990334.3932228,1479.19
1569990334.3933957,1479.54
1569990334.3935204,1480.19
1569990334.4264805,1472.35
1569990334.4267576,1481.3
1569990334.4269786,1471.41
1569990334.4271665,1480.33
1569990334.4597943,1471.63
1569990334.4599872,1478.19
1569990334.4601512,1476.79
1569990334.4930959,1471.53
1569990334.4932623,1479.14
1569990334.4933867,1470.43
1569990334.4935048,1481.03
1569990334.5264075,1470.97
1569990334.5266776,1478.24
1569990334.526884,1474.54
1569990334.5270715,1474.84
1569990334.5597212,1476.41
1569990334.5599253,1468.81
1569990334.5600758,1478.1
1569990334.5930343,1468.73
1569990334.5933268,1478.09
1569990334.593625,1469.32
1569990334.5939121,1475.26
1569990334.6263325,1474.12
1569990334.6265008,1471.3
1569990334.6267388,1474.56
1569990334.6595242,1464.57
1569990334.6596737,1474.29
1569990334.659788,1463.79
1569990334.6598969,1472.39
1569990334.6932445,1467.88
1569990334.6934686,1474.26
1569990334.6936584,1477.91
1569990334.7260847,1470.98
1569990334.7262125,1481.65
1569990334.7263117,1472.7
1569990334.7264063,1481.9
1569990334.7595208,1473.67
1569990334.759771,1479.61
1569990334.7600913,1479.06
1569990334.7927165,1476.52
1569990334.7929707,1480.87
1569990334.7931972,1470.92
1569990334.793443,1480.89
1569990334.8261206,1469.94
1569990334.826362,1477.98
1569990334.8265994,1473.97
1569990334.8268006,1480.89
1569990334.859472,1488.05
1569990334.8598702,1487.45
1569990334.860045,1499.71
1569990334.892611,1492.63
1569990334.8928268,1504.25
1569990334.893005,1496.03
1569990334.8931825,1502.69
1569990334.9259417,1499.6
1569990334.9260705,1500.4
1569990334.926424,1504.84
1569990334.9591963,1494.76
1569990334.9594061,1505.34
1569990334.9595928,1495.34
1569990334.9597585,1502.3
1569990334.9926054,1495.87
1569990334.9928522,1498.25
1569990334.9930365,1500.75
1569990335.0257988,1494.89
1569990335.0259778,1502.24
1569990335.0261133,1491.65
1569990335.0263245,1501.47
1569990335.0590963,1491.72
1569990335.0592482,1496.42
1569990335.0593724,1492.83
1569990335.092338,1492.32
1569990335.0924962,1496.67
1569990335.092598,1487.85
1569990335.0927005,1497.13
1569990335.1257272,1487.27
1569990335.1259239,1497.49
1569990335.1261117,1489.33
1569990335.1263025,1491.69
1569990335.1590197,1491.61
1569990335.159259,1489.83
1569990335.1594384,1497.74
1569990335.1922717,1487.14
1569990335.192488,1497.25
1569990335.1926765,1486.97
1569990335.192867,1491.63
1569990335.22574,1488.73
1569990335.2260935,1487.89
1569990335.2264,1493.43
1569990335.2588403,1484.84
1569990335.2590206,1493.4
1569990335.259169,1482.82
1569990335.2593124,1492.45
1569990335.2920988,1484.71
1569990335.292226,1486.85
1569990335.2923286,1486.58
1569990335.3254354,1483.3
1569990335.3256438,1490.95
1569990335.3258271,1480.62
1569990335.3260055,1490.79
1569990335.358767,1481.54
1569990335.3589988,1489.35
1569990335.359214,1482.84
1569990335.3920708,1481.54
1569990335.39224,1484.12
1569990335.3923838,1478.84
1569990335.3925428,1488.58
1569990335.4253654,1479.35
1569990335.4255235,1488.84
1569990335.4256535,1481.15
1569990335.4257784,1482.76
1569990335.458769,1482.79
1569990335.458989,1479.29
1569990335.4592097,1487.61
1569990335.4919703,1476.92
1569990335.4921658,1487.09
1569990335.4923756,1478.24
1569990335.4925694,1485.56
1569990335.5253346,1479.3
1569990335.5256789,1477.95
1569990335.5260515,1481.1
1569990335.5585341,1475.41
1569990335.558745,1484.6
1569990335.558927,1473.5
1569990335.5590866,1483.8
1569990335.5918689,1475.99
1569990335.5920358,1480.58
1569990335.5921679,1476.31
1569990335.6250896,1472.26
1569990335.6252944,1478.39
1569990335.6254752,1470.9
1569990335.6256316,1481.85
1569990335.6591017,1473.65
1569990335.6592674,1481.43
1569990335.6594224,1476.0
1569990335.6916378,1474.98
1569990335.6918983,1479.59
1569990335.6921203,1474.4
1569990335.6923437,1484.38
1569990335.7249537,1473.39
1569990335.72513,1483.4
1569990335.7252524,1476.67
1569990335.7253683,1482.1
1569990335.7583337,1477.51
1569990335.7585924,1467.61
1569990335.7587264,1466.91
1569990335.7916179,1447.66
1569990335.7917888,1445.55
1569990335.791938,1424.72
1569990335.7920759,1420.7
1569990335.8248293,1403.11
1569990335.8249528,1395.36
1569990335.8250523,1384.47
1569990335.85823,1368.91
1569990335.8585865,1371.4
1569990335.8588812,1357.27
1569990335.8591619,1364.38
1569990335.8915913,1357.26
1569990335.8918643,1363.32
1569990335.892103,1364.18
1569990335.9247017,1364.25
1569990335.9249127,1375.54
1569990335.9250815,1373.41
1569990335.9252224,1390.59
1569990335.9581852,1385.43
1569990335.958451,1399.96
1569990335.958743,1402.09
1569990335.9912422,1409.66
1569990335.9913864,1415.66
1569990335.9914937,1414.71
1569990335.9915934,1427.94
1569990336.0246706,1423.48
1569990336.0248268,1438.42
1569990336.0250335,1433.51
1569990336.025174,1445.51
1569990336.057988,1447.3
1569990336.058152,1449.43
1569990336.0583193,1455.91
1569990336.091253,1451.19
1569990336.0915675,1464.75
1569990336.0918515,1458.82
1569990336.0920951,1470.96
1569990336.1245506,1469.73
1569990336.1247835,1474.03
1569990336.124985,1477.49
1569990336.1577659,1472.72
1569990336.157968,1483.45
1569990336.158121,1476.19
1569990336.1583085,1488.33
1569990336.1910927,1480.9
1569990336.1912422,1490.15
1569990336.1913528,1490.65
1569990336.2244325,1491.11
1569990336.2246072,1496.3
1569990336.2255518,1488.56
1569990336.2258086,1499.19
1569990336.2577143,1490.44
1569990336.2578664,1500.25
1569990336.257983,1493.52
1569990336.2909393,1500.42
1569990336.2911205,1507.3
1569990336.293823,1510.01
1569990336.293932,1525.41
1569990336.3242514,1526.12
1569990336.3244543,1545.33
1569990336.3245707,1546.76
1569990336.3246708,1564.66
1569990336.357663,1574.01
1569990336.3578122,1581.15
1569990336.3579316,1593.77
1569990336.3909476,1592.62
1569990336.3911266,1607.49
1569990336.3913229,1601.66
1569990336.391506,1612.08
1569990336.42426,1605.05
1569990336.4246013,1608.1
1569990336.4248273,1605.87
1569990336.4574068,1598.06
1569990336.457611,1598.52
1569990336.45779,1582.85
1569990336.4579659,1587.9
1569990336.4907274,1570.59
1569990336.4909012,1570.14
1569990336.4910526,1560.49
1569990336.523972,1556.76
1569990336.5241065,1554.84
1569990336.524207,1543.85
1569990336.5243037,1547.1
1569990336.5573363,1532.75
1569990336.5575485,1539.64
1569990336.5577316,1526.5
1569990336.5908604,1526.24
1569990336.591239,1523.25
1569990336.5914056,1515.28
1569990336.5915046,1517.25
1569990336.6239293,1503.39
1569990336.6240985,1510.9
1569990336.6242282,1498.24
1569990336.6243508,1500.68
1569990336.6572552,1491.57
1569990336.6574676,1487.69
1569990336.6576126,1486.71
1569990336.6904552,1476.99
1569990336.690659,1482.53
1569990336.6907973,1469.63
1569990336.6909292,1478.09
1569990336.7238538,1467.71
1569990336.7240295,1469.43
1569990336.724184,1466.1
1569990336.757095,1464.26
1569990336.7572498,1470.41
1569990336.7573779,1460.91
1569990336.7574997,1469.37
1569990336.7904606,1458.89
1569990336.7907147,1467.91
1569990336.7908947,1460.95
1569990336.8236387,1462.95
1569990336.8237898,1468.35
1569990336.8239777,1461.94
1569990336.8241515,1471.04
1569990336.856944,1462.0
1569990336.8571296,1472.5
1569990336.857318,1463.99
1569990336.8902304,1468.12
1569990336.8905807,1466.68
1569990336.8907864,1465.51
1569990336.8909576,1474.09
1569990336.923593,1466.75
1569990336.9237826,1475.47
1569990336.9239237,1465.03
1569990336.92405,1475.58
1569990336.9568768,1469.36
1569990336.9570572,1471.22
1569990336.9571853,1472.14
1569990336.990143,1467.44
1569990336.990307,1475.48
1569990336.990444,1464.61
1569990336.9906092,1475.07
1569990337.0235083,1467.68
1569990337.0236967,1474.31
1569990337.0238886,1468.83
1569990337.0567753,1467.52
1569990337.0569367,1475.54
1569990337.057093,1466.55
1569990337.057268,1475.64
1569990337.0899975,1466.01
1569990337.0901358,1475.26
1569990337.0902479,1469.76
1569990337.1232672,1471.34
1569990337.1234283,1472.38
1569990337.1236062,1467.97
1569990337.123778,1477.5
1569990337.1567585,1467.07
1569990337.1571524,1478.15
1569990337.157372,1470.95
1569990337.1898916,1478.75
1569990337.1901414,1475.13
1569990337.1904585,1473.66
1569990337.1906834,1478.44
1569990337.2233334,1472.02
1569990337.2237387,1481.1
1569990337.22394,1471.33
1569990337.2241113,1482.72
1569990337.2565432,1476.28
1569990337.2567444,1480.75
1569990337.2569184,1479.92
1569990337.289869,1476.69
1569990337.2900352,1486.55
1569990337.2901769,1476.72
1569990337.2903163,1487.96
1569990337.3232071,1480.69
1569990337.3234549,1488.53
1569990337.3236601,1485.1
1569990337.3564126,1483.32
1569990337.3565857,1488.53
1569990337.3567073,1482.2
1569990337.356823,1492.11
1569990337.389733,1481.51
1569990337.3899682,1491.92
1569990337.3901284,1485.23
1569990337.4229436,1488.88
1569990337.4231257,1486.49
1569990337.4232805,1480.43
1569990337.4234314,1487.05
1569990337.4563062,1477.45
1569990337.4564743,1486.33
1569990337.456609,1475.22
1569990337.4895442,1482.2
1569990337.489828,1477.0
1569990337.490074,1478.18
1569990337.490314,1478.88
1569990337.5227835,1471.3
1569990337.522909,1480.82
1569990337.5230293,1469.8
1569990337.523202,1479.26
1569990337.556383,1472.54
1569990337.556717,1476.22
1569990337.5568993,1474.34
1569990337.5893989,1469.62
1569990337.5895681,1476.98
1569990337.5897088,1468.35
1569990337.5898428,1479.06
1569990337.6227474,1468.24
1569990337.6229506,1475.7
1569990337.6230905,1471.09
1569990337.656012,1471.9
1569990337.6562371,1472.24
1569990337.6564107,1464.58
1569990337.6566088,1473.66
1569990337.68933,1463.53
1569990337.689513,1472.86
1569990337.6896856,1463.11
1569990337.7226553,1469.38
1569990337.7229211,1467.68
1569990337.7231522,1465.73
1569990337.7233448,1469.4
1569990337.75596,1460.43
1569990337.7562275,1471.08
1569990337.7564695,1461.41
1569990337.789122,1470.57
1569990337.789322,1466.37
1569990337.7894645,1466.59
1569990337.7895942,1467.47
1569990337.8224912,1459.99
1569990337.822689,1469.75
1569990337.8228528,1460.62
1569990337.8229797,1470.56
1569990337.8558846,1462.0
1569990337.8563554,1469.84
1569990337.8566797,1469.69
1569990337.8891566,1468.13
1569990337.889376,1472.5
1569990337.8895137,1464.18
1569990337.8896384,1475.3
1569990337.9223888,1466.24
1569990337.922647,1476.05
1569990337.922774,1469.94
1569990337.9556327,1475.05
1569990337.9558222,1477.71
1569990337.9559634,1473.05
1569990337.956098,1479.68
1569990337.9890358,1470.09
1569990337.9892344,1479.62
1569990337.9893897,1471.31
1569990338.0223446,1477.75
1569990338.0225995,1476.96
1569990338.0227878,1474.29
1569990338.022918,1478.57
1569990338.0555737,1469.66
1569990338.0557802,1479.73
1569990338.0558898,1469.29
1569990338.0887775,1477.49
1569990338.0889623,1470.83
1569990338.0891175,1474.55
1569990338.089274,1476.72
1569990338.1222293,1471.7
1569990338.122478,1478.97
1569990338.122684,1468.78
1569990338.1228333,1478.73
1569990338.155599,1468.42
1569990338.155907,1474.23
1569990338.156192,1470.22
1569990338.1888592,1472.35
1569990338.1890757,1477.64
1569990338.1892133,1470.59
1569990338.1893291,1479.12
1569990338.2220497,1469.95
1569990338.222248,1479.18
1569990338.222428,1473.91
1569990338.2553475,1478.38
1569990338.255531,1481.1
1569990338.2557342,1476.26
1569990338.2559004,1483.8
1569990338.2886488,1474.27
1569990338.2888281,1484.94
1569990338.2890122,1474.94
1569990338.3218617,1480.91
1569990338.3220155,1477.45
1569990338.3221638,1478.7
1569990338.322313,1484.43
1569990338.3552077,1476.49
1569990338.3554225,1484.62
1569990338.3556323,1474.39
1569990338.3884485,1484.5
1569990338.3886502,1475.11
1569990338.3889127,1475.86
1569990338.389223,1471.72
1569990338.4217777,1464.59
1569990338.4219487,1468.07
1569990338.422141,1456.47
1569990338.422282,1464.36
1569990338.4551685,1453.36
1569990338.4553406,1458.18
1569990338.45555,1454.81
1569990338.4885795,1453.85
1569990338.4889743,1454.85
1569990338.4890885,1441.98
1569990338.4891858,1443.75
1569990338.521667,1425.44
1569990338.5218158,1428.42
1569990338.521933,1412.53
1569990338.555057,1409.55
1569990338.5552003,1405.58
1569990338.555316,1400.64
1569990338.555496,1407.48
1569990338.58828,1398.53
1569990338.5885086,1409.53
1569990338.5886633,1401.88
1569990338.6216328,1412.17
1569990338.6217976,1408.49
1569990338.6219356,1412.85
1569990338.6221092,1418.52
1569990338.654831,1417.72
1569990338.654981,1431.38
1569990338.6551344,1424.89
1569990338.6881423,1440.04
1569990338.688365,1435.52
1569990338.6885831,1441.7
1569990338.688809,1444.22
1569990338.7215083,1444.66
1569990338.7217908,1455.49
1569990338.7220464,1447.65
1569990338.7222736,1460.64
1569990338.7548769,1454.35
1569990338.755146,1464.47
1569990338.7553186,1460.56
1569990338.788091,1462.87
1569990338.788278,1466.96
1569990338.788397,1464.28
1569990338.7885177,1475.8
1569990338.8213727,1466.41
1569990338.8216107,1478.04
1569990338.8218172,1471.3
1569990338.8546271,1478.61
1569990338.854788,1476.03
1569990338.8549147,1474.96
1569990338.855034,1481.43
1569990338.887979,1475.71
1569990338.8881748,1487.78
1569990338.8883224,1478.44
1569990338.9212875,1489.98
1569990338.9214323,1485.37
1569990338.9215474,1485.83
1569990338.921657,1489.39
1569990338.9544868,1485.02
1569990338.9546876,1495.32
1569990338.9549024,1485.06
1569990338.987884,1495.92
1569990338.9880867,1489.05
1569990338.988246,1495.64
1569990338.9884534,1492.92
1569990339.0211751,1490.27
1569990339.0213876,1495.99
1569990339.021558,1488.91
1569990339.0216906,1499.16
1569990339.0544295,1488.68
1569990339.0546157,1498.43
1569990339.054731,1491.62
1569990339.0876315,1494.43
1569990339.0877597,1494.61
1569990339.0878613,1494.08
1569990339.087958,1507.15
1569990339.1211276,1505.77
1569990339.1214256,1523.58
1569990339.1216445,1518.3
1569990339.1541822,1530.95
1569990339.1543171,1529.99
1569990339.1544237,1528.04
1569990339.1545625,1534.48
1569990339.1877267,1526.97
1569990339.188211,1536.8
1569990339.1884482,1524.96
1569990339.2208378,1533.06
1569990339.2210345,1526.11
1569990339.22123,1528.0
1569990339.221381,1524.25
1569990339.254149,1516.48
1569990339.254341,1524.31
1569990339.2544878,1517.21
1569990339.287401,1531.78
1569990339.2875602,1525.97
1569990339.2876818,1540.15
1569990339.28784,1543.44
1569990339.3207617,1549.26
1569990339.3209364,1557.2
1569990339.3210807,1554.35
1569990339.3212183,1567.31
1569990339.354171,1559.58
1569990339.3544757,1569.12
1569990339.3548017,1559.31
1569990339.387272,1562.87
1569990339.387397,1558.6
1569990339.3874962,1548.59
1569990339.3875911,1553.02
1569990339.4207902,1538.84
1569990339.4210773,1544.73
1569990339.421229,1531.65
1569990339.4538627,1535.57
1569990339.454001,1528.47
1569990339.4541173,1525.44
1569990339.4542382,1523.59
1569990339.4872384,1512.03
1569990339.4874141,1519.78
1569990339.487556,1507.14
1569990339.5205526,1513.31
1569990339.521007,1502.5
1569990339.5212657,1506.62
1569990339.5214255,1504.58
1569990339.5540955,1500.13
1569990339.55428,1502.31
1569990339.5544333,1490.15
1569990339.587146,1498.72
1569990339.5873442,1486.26
1569990339.5874999,1492.19
1569990339.5876532,1484.4
1569990339.6204336,1486.34
1569990339.620739,1487.38
1569990339.6210082,1477.96
1569990339.6212711,1487.14
1569990339.654118,1475.5
1569990339.65435,1483.32
1569990339.6544929,1474.06
1569990339.6870043,1479.07
1569990339.6872425,1479.98
1569990339.6874385,1478.91
1569990339.6876385,1487.13
1569990339.7202497,1481.5
1569990339.7204275,1495.13
1569990339.7205734,1487.17
1569990339.7536674,1496.04
1569990339.7539725,1490.02
1569990339.7541616,1492.63
1569990339.7543066,1494.81
1569990339.7869606,1488.54
1569990339.7871566,1495.23
1569990339.7873027,1483.73
1569990339.8202407,1492.65
1569990339.8204472,1480.86
1569990339.8206108,1485.22
1569990339.8207707,1481.15
1569990339.853502,1480.68
1569990339.853691,1484.42
1569990339.8538523,1473.14
1569990339.8867505,1483.16
1569990339.8869824,1472.09
1569990339.887125,1478.46
1569990339.8872585,1471.53
1569990339.9200492,1473.12
1569990339.9202535,1475.11
1569990339.9203932,1468.62
1569990339.920557,1476.06
1569990339.9532752,1464.93
1569990339.9534013,1474.56
1569990339.9535034,1464.11
1569990339.9868588,1468.91
1569990339.987144,1465.49
1569990339.9873734,1464.45
1569990339.9875941,1468.9
1569990340.019954,1460.08
1569990340.0201066,1468.87
1569990340.020211,1458.62
1569990340.0532165,1468.51
1569990340.0535085,1459.7
1569990340.0537717,1461.75
1569990340.0540462,1461.94
1569990340.0864878,1460.48
1569990340.086704,1468.93
1569990340.0868382,1458.61
1569990340.1197438,1468.97
1569990340.1198974,1458.87
1569990340.1200342,1464.03
1569990340.1201549,1461.8
1569990340.1531248,1462.24
1569990340.1533115,1468.71
1569990340.153465,1460.43
1569990340.1863494,1469.52
1569990340.1866617,1458.78
1569990340.1868768,1468.37
1569990340.1870902,1460.83
1569990340.2197056,1463.61
1569990340.2198992,1463.57
1569990340.2200308,1460.64
1569990340.2201526,1468.42
1569990340.2529964,1458.01
1569990340.2531443,1468.75
1569990340.2532651,1459.98
1569990340.2863219,1468.41
1569990340.2866092,1461.99
1569990340.2868128,1461.87
1569990340.2870955,1465.42
1569990340.319758,1460.01
1569990340.3199959,1466.74
1569990340.3201854,1450.98
1569990340.3528337,1454.79
1569990340.35298,1440.0
1569990340.3530889,1436.32
1569990340.35319,1433.32
1569990340.3864658,1427.84
1569990340.3867419,1435.74
1569990340.3869092,1425.21
1569990340.419383,1435.52
1569990340.4195647,1427.26
1569990340.4197154,1436.81
1569990340.4198704,1432.73
1569990340.4527142,1433.81
1569990340.4528768,1438.36
1569990340.4530008,1434.62
1569990340.4860342,1446.57
1569990340.4862487,1436.91
1569990340.48644,1448.91
1569990340.486754,1442.93
1569990340.519328,1450.26
1569990340.5194802,1447.97
1569990340.519601,1446.04
1569990340.5197165,1453.25
1569990340.5526912,1447.34
1569990340.5528445,1459.44
1569990340.5529635,1451.59
1569990340.5860844,1460.5
1569990340.5863457,1455.79
1569990340.5865934,1455.65
1569990340.5868177,1459.51
1569990340.6195366,1451.85
1569990340.6198127,1457.21
1569990340.6200166,1440.53
1569990340.6525576,1443.26
1569990340.6529129,1427.1
1569990340.6531029,1425.1
1569990340.6532788,1412.87
1569990340.6858706,1400.42
1569990340.6861038,1400.93
1569990340.6862786,1387.02
1569990340.7196457,1393.81
1569990340.7199254,1381.44
1569990340.7200572,1390.61
1569990340.7201836,1386.35
1569990340.7529328,1390.73
1569990340.753164,1393.51
1569990340.753287,1391.31
1569990340.7856758,1402.97
1569990340.7859762,1397.82
1569990340.7862275,1412.48
1569990340.7863803,1409.24
1569990340.8190305,1417.9
1569990340.81927,1419.53
1569990340.8194156,1419.31
1569990340.8195996,1428.98
1569990340.8524227,1424.9
1569990340.852603,1439.79
1569990340.8527436,1432.34
1569990340.8855686,1445.02
1569990340.8858352,1443.47
1569990340.885984,1448.91
1569990340.8861034,1452.65
1569990340.9188597,1449.71
1569990340.9191031,1460.7
1569990340.9193275,1453.82
1569990340.9522069,1466.96
1569990340.9524336,1459.52
1569990340.9526587,1469.39
1569990340.9528186,1469.2
1569990340.985455,1470.86
1569990340.9856718,1475.18
1569990340.9858983,1468.4
1569990341.0187,1480.04
1569990341.0188727,1471.66
1569990341.0191345,1482.04
1569990341.0193677,1478.86
1569990341.052291,1482.94
1569990341.052507,1485.05
1569990341.0526488,1479.61
1569990341.0853446,1489.23
1569990341.0860405,1481.04
1569990341.0865905,1493.14
1569990341.0867321,1484.69
1569990341.118638,1493.15
1569990341.1187897,1492.2
1569990341.1189833,1492.67
1569990341.119199,1496.4
1569990341.151972,1488.15
1569990341.152157,1498.89
1569990341.1523798,1488.83
1569990341.1853132,1498.03
1569990341.1856003,1490.54
1569990341.1858861,1496.36
1569990341.1861727,1495.88
1569990341.2185946,1493.02
1569990341.218838,1502.32
1569990341.2190626,1498.72
1569990341.2517629,1516.84
1569990341.2519426,1517.0
1569990341.2520912,1534.98
1569990341.2522326,1543.44
1569990341.2855577,1550.85
1569990341.2862992,1562.94
1569990341.2867835,1561.21
1569990341.3184679,1575.54
1569990341.3188336,1568.73
1569990341.3190641,1579.13
1569990341.3192766,1570.59
1569990341.3516366,1574.08
1569990341.3517985,1572.03
1569990341.3519065,1565.9
1569990341.3849761,1567.75
1569990341.3852048,1553.51
1569990341.3853722,1561.24
1569990341.3855495,1547.35
1569990341.4182405,1551.01
1569990341.4184592,1542.72
1569990341.4186742,1541.91
1569990341.4188037,1541.66
1569990341.4515069,1532.17
1569990341.4516935,1536.59
1569990341.4518242,1522.69
1569990341.4848466,1530.39
1569990341.484981,1517.81
1569990341.4850895,1520.09
1569990341.4851916,1518.45
1569990341.5181782,1512.14
1569990341.5183392,1515.5
1569990341.5184875,1503.61
1569990341.5516105,1512.99
1569990341.5519085,1500.99
1569990341.5522618,1506.58
1569990341.552632,1499.93
1569990341.5848484,1499.84
1569990341.5851483,1500.9
1569990341.5854104,1492.43
1569990341.6180131,1499.23
1569990341.6182134,1487.63
1569990341.618376,1497.37
1569990341.6185715,1487.12
1569990341.6514308,1490.7
1569990341.6517305,1487.27
1569990341.651916,1486.2
1569990341.685049,1491.8
1569990341.6852999,1482.69
1569990341.6854734,1492.11
1569990341.685677,1481.66
1569990341.718088,1491.0
1569990341.7186193,1482.8
1569990341.7187624,1483.87
1569990341.7189763,1486.6
1569990341.7511652,1478.48
1569990341.751317,1485.29
1569990341.7514381,1473.73
1569990341.784548,1483.54
1569990341.7847397,1473.62
1569990341.7848847,1477.75
1569990341.7850218,1475.38
1569990341.8178353,1475.11
1569990341.818,1482.26
1569990341.8181348,1473.85
1569990341.851098,1483.8
1569990341.8512506,1473.34
1569990341.8513806,1482.11
1569990341.8515623,1474.3
1569990341.8852377,1477.94
1569990341.8855803,1480.28
1569990341.8859093,1478.98
1569990341.9177284,1488.89
1569990341.9179826,1478.8
1569990341.9181695,1489.59
1569990341.9183326,1480.04
1569990341.95095,1487.41
1569990341.9510794,1481.5
1569990341.9511826,1480.5
1569990341.9842772,1486.35
1569990341.9844656,1477.03
1569990341.9846044,1486.46
1569990341.984737,1475.85
1569990342.0176737,1484.5
1569990342.0179307,1476.5
1569990342.0181222,1477.94
1569990342.0184138,1478.14
1569990342.0509934,1474.24
1569990342.051215,1482.08
1569990342.0513725,1470.49
1569990342.0841644,1480.34
1569990342.084309,1470.82
1569990342.084446,1477.74
1569990342.0845776,1470.59
1569990342.1175783,1468.39
1569990342.1178184,1471.28
1569990342.1179805,1464.34
1569990342.1509624,1473.07
1569990342.1512191,1461.38
1569990342.1514087,1471.17
1569990342.1515892,1463.22
1569990342.184076,1468.25
1569990342.1843243,1464.13
1569990342.184541,1459.05
1569990342.2178168,1466.34
1569990342.218461,1454.85
1569990342.2189045,1465.05
1569990342.219226,1456.12
1569990342.2508452,1463.66
1569990342.2510836,1457.27
1569990342.2512586,1455.09
1569990342.2839627,1458.63
1569990342.2843316,1452.91
1569990342.2846544,1462.63
1569990342.28498,1451.4
1569990342.317184,1462.03
1569990342.317349,1454.84
1569990342.317476,1460.32
1569990342.3175936,1457.3
1569990342.3505833,1453.81
1569990342.3507733,1459.78
1569990342.3509731,1451.12
1569990342.3837912,1461.13
1569990342.3839552,1450.3
1569990342.3840957,1460.07
1569990342.3842294,1455.14
1569990342.4171312,1458.24
1569990342.417283,1457.59
1569990342.417401,1452.07
1569990342.4503691,1462.07
1569990342.4506161,1451.06
1569990342.450773,1461.49
1569990342.4509308,1454.23
1569990342.483821,1459.6
1569990342.484116,1455.91
1569990342.4843645,1452.17
1569990342.517046,1458.06
1569990342.5173733,1449.74
1569990342.5177362,1460.15
1569990342.5180705,1449.69
1569990342.5503485,1458.77
1569990342.5506766,1452.8
1569990342.550901,1455.49
1569990342.5835447,1453.92
1569990342.5838017,1448.2
1569990342.5840144,1456.41
1569990342.5842078,1447.61
1569990342.6169677,1457.46
1569990342.6172338,1447.33
1569990342.617457,1454.93
1569990342.617675,1451.83
1569990342.6504138,1452.79
1569990342.6509938,1454.43
1569990342.6512146,1446.67
1569990342.68355,1457.4
1569990342.683707,1447.52
1569990342.68383,1457.44
1569990342.683947,1452.57
1569990342.716691,1455.3
1569990342.7168567,1453.85
1569990342.7170098,1448.29
1569990342.7500167,1455.98
1569990342.7501683,1446.62
1569990342.7502897,1456.73
1569990342.7504065,1447.32
1569990342.7834442,1456.01
1569990342.7837238,1453.36
1569990342.7839584,1454.17
1569990342.816684,1455.52
1569990342.8169763,1447.13
1569990342.8172295,1456.85
1569990342.8174956,1447.2
1569990342.8500648,1456.66
1569990342.850409,1448.47
1569990342.8509188,1455.02
1569990342.8831205,1454.84
1569990342.8832648,1453.44
1569990342.883378,1458.64
1569990342.8834865,1450.28
1569990342.9165814,1461.21
1569990342.916753,1451.94
1569990342.9168782,1460.05
1569990342.9169986,1456.93
1569990342.9499488,1457.39
1569990342.9501202,1459.09
1569990342.950243,1451.18
1569990342.9831827,1460.44
1569990342.9839566,1450.64
1569990342.9842744,1459.48
1569990342.9844737,1451.21
1569990343.016406,1456.97
1569990343.0166013,1456.03
1569990343.016747,1453.35
1569990343.0497243,1457.86
1569990343.0498862,1449.38
1569990343.050011,1459.99
1569990343.0501306,1450.12
1569990343.082983,1458.63
1569990343.0831442,1452.3
1569990343.083273,1454.09
1569990343.1163998,1451.79
1569990343.1165757,1441.54
1569990343.1167104,1439.93
1569990343.1168392,1420.21
1569990343.1496665,1419.06
1569990343.1499665,1402.73
1569990343.1502316,1398.66
1569990343.1827807,1389.16
1569990343.1829832,1379.7
1569990343.183144,1377.65
1569990343.183301,1364.46
1569990343.2162247,1373.22
1569990343.2164178,1362.61
1569990343.2165873,1370.43
1569990343.2167196,1366.03
1569990343.2495134,1373.1
1569990343.2496872,1379.41
1569990343.2498245,1377.58
1569990343.2828207,1389.8
1569990343.2829888,1384.8
1569990343.2831059,1398.99
1569990343.2832794,1394.51
1569990343.316223,1405.18
1569990343.3165903,1405.64
1569990343.31687,1410.84
1569990343.349293,1420.65
1569990343.3495,1417.9
1569990343.3496356,1432.79
1569990343.3497615,1427.22
1569990343.3827226,1438.89
1569990343.3829794,1436.18
1569990343.3831537,1443.47
1569990343.4159634,1449.93
1569990343.4162695,1446.9
1569990343.4164531,1457.14
1569990343.4166439,1450.27
1569990343.4493678,1462.81
1569990343.4496663,1457.23
1569990343.4499636,1466.3
1569990343.482573,1465.25
1569990343.4829118,1469.09
1569990343.4831815,1476.93
1569990343.483447,1470.98
1569990343.5158412,1481.9
1569990343.5161211,1473.97
1569990343.5163178,1485.91
1569990343.5165098,1479.59
1569990343.5492604,1484.04
1569990343.549604,1485.11
1569990343.5498075,1485.0
1569990343.5827608,1493.39
1569990343.5829885,1483.71
1569990343.5831232,1493.25
1569990343.5832448,1486.47
1569990343.6156845,1498.67
1569990343.6158645,1502.6
1569990343.6159966,1513.13
1569990343.6490228,1529.47
1569990343.6492455,1530.45
1569990343.649421,1550.91
1569990343.6495721,1551.64
1569990343.6823163,1569.21
1569990343.6824942,1569.57
1569990343.6827717,1578.8
1569990343.715755,1581.49
1569990343.7161045,1582.4
1569990343.7163157,1591.45
1569990343.7164538,1582.02
1569990343.7489936,1591.98
1569990343.7492795,1583.11
1569990343.749476,1592.16
1569990343.7821465,1585.56
1569990343.7824035,1586.56
1569990343.7828093,1590.34
1569990343.7831488,1587.48
1569990343.8155115,1598.33
1569990343.8158243,1589.68
1569990343.8160136,1602.52
1569990343.8161721,1596.34
1569990343.8488789,1599.38
1569990343.849208,1598.61
1569990343.849511,1595.28
1569990343.8822312,1601.92
1569990343.8824801,1590.65
1569990343.8826528,1598.72
1569990343.8827724,1586.22
1569990343.9156177,1591.67
1569990343.9159734,1580.87
1569990343.916141,1575.88
1569990343.9486287,1574.27
1569990343.9487984,1564.36
1569990343.948937,1568.81
1569990343.949082,1553.77
1569990343.9818254,1558.3
1569990343.9819896,1543.78
1569990343.9821284,1544.71
1569990344.0151446,1534.04
1569990344.0153708,1524.26
1569990344.0155425,1524.1
1569990344.0157077,1510.64
1569990344.0485718,1516.35
1569990344.0487576,1501.99
1569990344.0488977,1507.8
1569990344.0818677,1497.61
1569990344.0821455,1494.05
1569990344.082346,1496.2
1569990344.082671,1490.99
1569990344.1150973,1499.88
1569990344.115289,1488.21
1569990344.1154494,1497.78
1569990344.1156006,1488.91
1569990344.1484382,1493.91
1569990344.148657,1488.37
1569990344.1488433,1483.5
1569990344.1816537,1487.69
1569990344.181852,1478.13
1569990344.1821702,1486.42
1569990344.182858,1473.52
1569990344.215044,1480.61
1569990344.2152812,1471.29
1569990344.2154999,1472.49
1569990344.2483873,1468.91
1569990344.248617,1461.11
1569990344.248831,1467.75
1569990344.2490284,1456.1
1569990344.2816448,1464.19
1569990344.2819235,1453.15
1569990344.2821357,1460.29
1569990344.3149753,1455.62
1569990344.3152359,1451.07
1569990344.3154545,1455.43
1569990344.3156707,1445.83
1569990344.3483043,1455.38
1569990344.3485289,1444.08
1569990344.3487139,1453.31
1569990344.3814225,1448.03
1569990344.3816855,1451.74
1569990344.3819082,1451.3
1569990344.3824744,1445.95
1569990344.4148116,1453.89
1569990344.4151247,1444.92
1569990344.4154274,1456.56
1569990344.4157128,1447.45
1569990344.4480815,1456.26
1569990344.44823,1453.33
1569990344.4483542,1453.84
1569990344.481296,1455.7
1569990344.4814284,1447.4
1569990344.481532,1457.04
1569990344.4816306,1447.21
1569990344.5146782,1456.89
1569990344.5148919,1448.65
1569990344.5150275,1455.64
1569990344.5479212,1456.11
1569990344.5481036,1450.81
1569990344.548246,1459.77
1569990344.548381,1451.22
1569990344.5812414,1462.94
1569990344.5814927,1454.07
1569990344.5816605,1462.54
1569990344.6144223,1460.24
1569990344.6146379,1460.66
1569990344.6147943,1463.77
1569990344.6149864,1456.7
1569990344.6478634,1467.67
1569990344.648106,1458.52
1569990344.6482687,1468.28
1569990344.681172,1460.36
1569990344.6815143,1466.96
1569990344.6817217,1467.43
1569990344.6818995,1464.95
1569990344.7144568,1470.69
1569990344.7148445,1461.88
1569990344.7150998,1473.63
1569990344.7153337,1465.03
1569990344.7476947,1474.51
1569990344.7478611,1469.72
1569990344.747997,1474.68
1569990344.780926,1478.76
1569990344.7810957,1471.64
1569990344.7812374,1482.77
1569990344.781374,1473.35
1569990344.8143723,1483.13
1569990344.814694,1475.53
1569990344.8148737,1481.38
1569990344.8476458,1482.14
1569990344.847831,1479.34
1569990344.8479698,1484.78
1569990344.848101,1475.3
1569990344.8808448,1486.05
1569990344.8810408,1476.18
1569990344.8811889,1484.21
1569990344.9141092,1478.37
1569990344.9142773,1481.48
1569990344.9144049,1484.12
1569990344.9145646,1477.76
1569990344.9475055,1485.03
1569990344.9477742,1474.25
1569990344.9479988,1484.54
1569990344.980769,1474.76
1569990344.9811454,1480.55
1569990344.9814222,1477.72
1569990344.981677,1478.71
1569990345.014067,1484.72
1569990345.014356,1475.06
1569990345.014637,1485.73
1569990345.0148716,1475.77
1569990345.0473897,1483.91
1569990345.0477283,1477.02
1569990345.0480163,1475.28
1569990345.080626,1471.57
1569990345.0808935,1457.71
1569990345.0811226,1455.05
1569990345.0813487,1433.8
1569990345.113994,1435.85
1569990345.1142504,1416.93
1569990345.1144626,1413.97
1569990345.147203,1405.54
1569990345.1473618,1399.76
1569990345.147483,1402.43
1569990345.1476138,1393.11
1569990345.180434,1403.39
1569990345.1806078,1395.72
1569990345.1807508,1408.22
1569990345.2138603,1403.89
1569990345.2141333,1410.4
1569990345.2143233,1413.28
1569990345.2144864,1414.63
1569990345.2471015,1427.58
1569990345.2472515,1421.29
1569990345.2473762,1434.99
1569990345.280367,1429.43
1569990345.280569,1438.38
1569990345.2806914,1439.61
1569990345.2807977,1442.49
1569990345.3138843,1451.39
1569990345.3142936,1445.29
1569990345.314648,1457.92
1569990345.3148754,1450.48
1569990345.3469996,1462.5
1569990345.3473039,1457.27
1569990345.347591,1462.03
1569990345.3802192,1464.51
1569990345.3803873,1463.95
1569990345.3805304,1474.88
1569990345.380668,1466.45
1569990345.4136276,1478.9
1569990345.4138923,1471.56
1569990345.414131,1481.04
1569990345.4469123,1476.79
1569990345.4472256,1478.08
1569990345.4474926,1482.89
1569990345.4477394,1479.24
1569990345.4802003,1490.73
1569990345.4804058,1481.57
1569990345.4806807,1491.68
1569990345.5135171,1486.03
1569990345.5137866,1493.59
1569990345.5140097,1499.98
1569990345.5142276,1505.13
1569990345.5467172,1522.94
1569990345.5468814,1520.21
1569990345.54701,1540.67
1569990345.580005,1541.64
1569990345.5802794,1557.32
1569990345.580599,1559.96
1569990345.5808492,1566.2
1569990345.6133473,1574.32
1569990345.6135101,1574.19
1569990345.613638,1588.16
1569990345.613753,1579.08
1569990345.6468213,1590.31
1569990345.6470854,1581.64
1569990345.6473064,1585.45
1569990345.6799953,1578.12
1569990345.6803772,1570.27
1569990345.6807218,1572.57
1569990345.6810584,1560.48
1569990345.7131858,1566.73
1569990345.7133331,1553.3
1569990345.7134535,1557.54
1569990345.7468078,1547.26
1569990345.7470832,1541.9
1569990345.7472746,1542.28
1569990345.747452,1532.56
1569990345.7798498,1538.61
1569990345.7800875,1524.12
1569990345.7802806,1530.66
1569990345.8129785,1519.58
1569990345.8131254,1522.63
1569990345.813241,1517.09
1569990345.8134573,1511.19
1569990345.8463612,1515.76
1569990345.8465886,1505.5
1569990345.8467333,1513.99
1569990345.879633,1501.45
1569990345.8798459,1509.14
1569990345.8799899,1502.41
1569990345.8800893,1503.97
1569990345.9130242,1501.1
1569990345.9132652,1493.03
1569990345.9134653,1500.38
1569990345.913655,1489.89
1569990345.9465003,1498.5
1569990345.9469914,1488.76
1569990345.9472759,1492.68
1569990345.9795625,1487.8
1569990345.979868,1481.83
1569990345.980145,1486.45
1569990345.9804103,1476.03
1569990346.0130193,1485.49
1569990346.0132325,1473.75
1569990346.0133936,1481.89
1569990346.0464697,1475.67
1569990346.0467885,1477.51
1569990346.0470612,1476.32
1569990346.0473201,1469.17
1569990346.079668,1477.13
1569990346.0799663,1466.59
1569990346.0801272,1476.5
1569990346.1126654,1466.13
1569990346.1128109,1473.38
1569990346.11292,1469.99
1569990346.113022,1469.84
1569990346.1460202,1472.64
1569990346.146199,1464.57
1569990346.1463556,1474.89
1569990346.1792965,1464.81
1569990346.1794739,1473.91
1569990346.1795998,1468.76
1569990346.1797082,1471.05
1569990346.212633,1470.8
1569990346.212853,1464.31
1569990346.213031,1472.57
1569990346.2131987,1462.41
1569990346.2459857,1473.34
1569990346.246212,1463.82
1569990346.2463765,1471.73
1569990346.2792485,1468.99
1569990346.279465,1468.48
1569990346.279638,1471.66
1569990346.2797995,1463.2
1569990346.3126051,1473.93
1569990346.3128724,1463.81
1569990346.3131502,1472.72
1569990346.345834,1464.08
1569990346.346058,1469.48
1569990346.3462307,1469.74
1569990346.3463922,1466.54
1569990346.3791513,1472.25
1569990346.3793833,1462.43
1569990346.3795836,1472.92
1569990346.4123704,1462.16
1569990346.4126308,1469.96
1569990346.4128418,1467.62
1569990346.4130526,1467.27
1569990346.4456906,1470.16
1569990346.4458637,1460.99
1569990346.4459858,1471.3
1569990346.4788926,1460.51
1569990346.479029,1469.19
1569990346.4791322,1460.57
1569990346.479232,1465.45
1569990346.5122695,1465.86
1569990346.5124114,1462.16
1569990346.5125182,1468.28
1569990346.5126188,1459.04
1569990346.546186,1470.6
1569990346.5463724,1460.34
1569990346.5465872,1468.21
1569990346.5788658,1462.76
1569990346.5790818,1465.72
1569990346.5792642,1469.56
1569990346.57953,1463.52
1569990346.6124637,1472.13
1569990346.6127532,1461.69
1569990346.6130068,1472.52
1569990346.6454043,1462.94
1569990346.6455722,1467.73
1569990346.6457095,1468.41
1569990346.6458416,1464.5
1569990346.6788962,1470.15
1569990346.6792037,1459.92
1569990346.6794827,1471.23
1569990346.712024,1461.13
1569990346.7121794,1468.23
1569990346.7123227,1462.34
1569990346.7124476,1464.56
1569990346.7452922,1467.99
1569990346.7454324,1461.71
1569990346.7455385,1470.62
1569990346.778541,1460.15
1569990346.778692,1470.61
1569990346.7788055,1461.31
1569990346.778914,1466.92
1569990346.8119857,1464.4
1569990346.812242,1464.33
1569990346.812449,1470.83
1569990346.812629,1462.34
1569990346.8452787,1472.59
1569990346.8455894,1462.55
1569990346.8458564,1472.66
1569990346.878574,1464.94
1569990346.8788447,1466.94
1569990346.879068,1470.46
1569990346.8792927,1463.4
1569990346.9118767,1471.32
1569990346.9121118,1460.52
1569990346.9123244,1471.34
1569990346.9450564,1461.98
1569990346.9452856,1466.96
1569990346.945481,1464.62
1569990346.9456694,1463.82
1569990346.9785883,1469.75
1569990346.9788485,1460.83
1569990346.9790297,1471.13
1569990347.0117588,1461.04
1569990347.0119457,1470.95
1569990347.012078,1463.53
1569990347.0121906,1466.35
1569990347.0450041,1467.2
1569990347.0451908,1463.9
1569990347.0453522,1472.8
1569990347.0782535,1462.32
1569990347.078582,1473.43
1569990347.0788105,1464.96
1569990347.0790358,1473.28
1569990347.1114895,1467.35
1569990347.1116366,1466.31
1569990347.111745,1473.23
1569990347.1118467,1465.05
1569990347.144849,1476.22
1569990347.1449897,1466.54
1569990347.1450975,1476.24
1569990347.1782095,1467.89
1569990347.17842,1469.55
1569990347.1786525,1470.27
1569990347.1788256,1466.47
1569990347.2115622,1475.12
1569990347.2118287,1464.39
1569990347.2120862,1475.12
1569990347.2446868,1465.78
1569990347.2449074,1473.49
1569990347.2450967,1467.61
1569990347.2452848,1466.9
1569990347.2782676,1470.8
1569990347.27862,1465.39
1569990347.2787735,1475.78
1569990347.311586,1464.42
1569990347.3117726,1475.09
1569990347.3119242,1467.68
1569990347.31207,1474.13
1569990347.3448453,1471.79
1569990347.3451173,1468.11
1569990347.3453054,1477.16
1569990347.3778586,1466.57
1569990347.3780131,1477.51
1569990347.37812,1468.81
1569990347.378222,1477.03
1569990347.4112363,1471.55
1569990347.411398,1470.06
1569990347.411511,1473.92
1569990347.4116173,1467.73
1569990347.4444764,1478.08
1569990347.4446394,1465.47
1569990347.4447742,1472.07
1569990347.4778533,1457.13
1569990347.4780343,1454.49
1569990347.478182,1440.51
1569990347.478322,1424.85
1569990347.5111327,1422.85
1569990347.511278,1403.89
1569990347.5113904,1405.84
1569990347.544486,1389.12
1569990347.544775,1393.4
1569990347.5450182,1384.94
1569990347.5452867,1385.97
1569990347.577821,1385.88
1569990347.5781686,1380.42
1569990347.5784507,1392.43
1569990347.610944,1382.58
1569990347.6112936,1395.86
1569990347.611804,1392.63
1569990347.6121671,1400.92
1569990347.6442518,1403.13
1569990347.6445096,1403.73
1569990347.6447122,1414.51
1569990347.6774716,1410.29
1569990347.677756,1425.65
1569990347.6779752,1418.72
1569990347.6781936,1433.12
1569990347.7108328,1432.59
1569990347.710977,1438.17
1569990347.7110844,1442.89
1569990347.7111857,1440.35
1569990347.7441154,1451.92
1569990347.7442575,1445.49
1569990347.744365,1459.06
1569990347.7776601,1451.49
1569990347.777852,1462.28
1569990347.7779663,1462.73
1569990347.7780726,1464.22
1569990347.8108053,1470.03
1569990347.8109584,1463.5
1569990347.8110828,1476.41
1569990347.8441772,1467.29
1569990347.8445935,1478.98
1569990347.8447971,1476.44
1569990347.8450115,1480.18
1569990347.8775496,1483.06
1569990347.8778825,1478.1
1569990347.8781052,1488.01
1569990347.9107316,1479.13
1569990347.9111285,1490.6
1569990347.9114237,1481.32
1569990347.9117253,1489.79
1569990347.944177,1489.8
1569990347.9444132,1491.61
1569990347.9445577,1497.77
1569990347.9781435,1491.32
1569990347.9783952,1503.65
1569990347.9786046,1495.45
1569990347.9787796,1505.94
1569990348.0104768,1498.7
1569990348.0107267,1504.63
1569990348.0108728,1505.86
1569990348.0110216,1502.77
1569990348.0438793,1508.96
1569990348.0441313,1498.86
1569990348.0443652,1509.35
1569990348.0770483,1499.53
1569990348.0772595,1505.98
1569990348.0775256,1504.08
1569990348.0779192,1505.12
1569990348.1107,1513.07
1569990348.110992,1509.83
1569990348.111191,1525.93
1569990348.143671,1523.51
1569990348.1439383,1541.01
1569990348.1441667,1540.14
1569990348.144384,1554.25
1569990348.1772563,1563.6
1569990348.1775372,1565.74
1569990348.1777554,1577.91
1569990348.2102423,1572.41
1569990348.210564,1586.04
1569990348.210812,1576.48
1569990348.2110443,1582.57
1569990348.2435532,1575.57
1569990348.2437665,1575.8
1569990348.2439446,1576.48
1569990348.2768223,1566.64
1569990348.2771454,1570.97
1569990348.2775133,1555.89
1569990348.278042,1559.73
1569990348.3103223,1547.71
1569990348.310656,1547.49
1569990348.3107824,1543.6
1569990348.3109155,1535.28
1569990348.3434799,1536.67
1569990348.3436508,1522.35
1569990348.3438473,1530.93
1569990348.376787,1517.56
1569990348.3770251,1522.13
1569990348.3772104,1514.46
1569990348.3774052,1514.32
1569990348.410136,1516.06
1569990348.410336,1507.22
1569990348.4105294,1513.28
1569990348.4433508,1499.95
1569990348.4435632,1508.73
1569990348.4437256,1496.78
1569990348.4439423,1498.95
1569990348.4766185,1494.19
1569990348.4768476,1490.66
1569990348.4770367,1494.34
1569990348.509925,1483.39
1569990348.5103626,1491.87
1569990348.510978,1479.82
1569990348.5113838,1485.61
1569990348.5433629,1480.06
1569990348.5436866,1481.09
1569990348.54396,1484.33
1569990348.5765154,1476.49
1569990348.5768056,1484.4
1569990348.5770073,1472.76
1569990348.5772398,1482.65
1569990348.6098692,1472.25
1569990348.6101468,1475.46
1569990348.6104662,1472.01
1569990348.6108105,1469.75
1569990348.6430125,1475.37
1569990348.6431522,1465.24
1569990348.6432674,1475.13
1569990348.6763914,1464.62
1569990348.6766303,1473.93
1569990348.6768203,1466.04
1569990348.677045,1467.66
1569990348.709692,1468.06
1569990348.7098887,1463.69
1569990348.7100258,1472.48
1569990348.7432878,1461.32
1569990348.7436082,1471.53
1569990348.743875,1461.98
1569990348.744113,1465.85
1569990348.776358,1463.91
1569990348.7765822,1462.53
1569990348.776746,1469.69
1569990348.809589,1460.99
1569990348.8098338,1471.75
1569990348.8099985,1461.49
1569990348.810168,1470.71
1569990348.8431833,1463.06
1569990348.8437114,1464.5
1569990348.844078,1465.79
1569990348.8760774,1462.47
1569990348.8763328,1471.94
1569990348.876737,1461.66
1569990348.8769686,1473.23
1569990348.909452,1464.11
1569990348.9096851,1472.08
1569990348.9098868,1466.84
1569990348.9100688,1465.58
1569990348.9428806,1469.23
1569990348.9431067,1462.8
1569990348.9432838,1473.2
1569990348.9759216,1461.75
1569990348.9760551,1472.35
1569990348.9761631,1464.48
1569990348.9762642,1465.45
1569990349.0094342,1466.38
1569990349.0096154,1461.82
1569990349.009751,1470.97
1569990349.0427344,1459.97
1569990349.042994,1470.62
1569990349.0431938,1461.15
1569990349.043351,1468.75
1569990349.075947,1463.96
1569990349.0761185,1462.96
1569990349.0762389,1467.82
1569990349.1093497,1462.19
1569990349.109632,1472.78
1569990349.1097527,1460.97
1569990349.109861,1471.45
1569990349.142811,1464.2
1569990349.143154,1469.57
1569990349.1434548,1466.75
1569990349.1757245,1462.65
1569990349.1759193,1469.48
1569990349.1760612,1460.61
1569990349.1762307,1471.64
1569990349.209165,1460.7
1569990349.2093635,1470.34
1569990349.209503,1465.26
1569990349.2097259,1463.85
1569990349.2424378,1468.71
1569990349.242725,1462.6
1569990349.242848,1473.26
1569990349.2757914,1461.8
1569990349.2760878,1472.53
1569990349.2762396,1465.16
1569990349.2763648,1469.75
1569990349.3089082,1467.15
1569990349.309061,1462.82
1569990349.3091912,1470.03
1569990349.3427618,1461.8
1569990349.3431938,1473.4
1569990349.3433878,1462.83
1569990349.3435717,1472.6
1569990349.3756928,1468.0
1569990349.3759995,1470.56
1569990349.3762355,1471.83
1569990349.408915,1465.33
1569990349.409147,1474.29
1569990349.4093049,1463.73
1569990349.4095454,1474.07
1569990349.442335,1464.21
1569990349.4428022,1471.64
1569990349.4431014,1469.87
1569990349.4754314,1464.04
1569990349.475765,1468.2
1569990349.47604,1452.76
1569990349.476287,1455.02
1569990349.508765,1436.47
1569990349.5091321,1435.35
1569990349.509413,1420.26
1569990349.5096872,1413.55
1569990349.5421374,1405.47
1569990349.5424442,1391.4
1569990349.5430098,1396.45
1569990349.575354,1383.2
1569990349.575538,1392.71
1569990349.575666,1384.2
1569990349.575781,1393.77
1569990349.6085477,1395.13
1569990349.6086807,1397.25
1569990349.608789,1404.94
1569990349.6420484,1400.31
1569990349.6423576,1414.94
1569990349.6426911,1408.32
1569990349.6429052,1421.06
1569990349.675292,1416.28
1569990349.6755102,1425.57
1569990349.6756897,1431.08
1569990349.7086174,1427.55
1569990349.7088912,1438.79
1569990349.7090857,1429.28
1569990349.7092555,1439.61
1569990349.7420874,1430.11
1569990349.7423282,1437.29
1569990349.7425897,1436.33
1569990349.7750928,1436.0
1569990349.7755616,1441.46
1569990349.7758803,1434.11
1569990349.7761867,1447.03
1569990349.8084705,1439.71
1569990349.808815,1451.84
1569990349.8091016,1446.43
1569990349.809353,1453.64
1569990349.8416688,1457.32
1569990349.8418863,1454.88
1569990349.8421185,1463.89
1569990349.874911,1455.92
1569990349.8750508,1468.64
1569990349.8751702,1460.42
1569990349.8752906,1469.82
1569990349.9083045,1465.84
1569990349.9085205,1469.55
1569990349.9087358,1475.46
1569990349.9416287,1468.13
1569990349.9418745,1480.69
1569990349.9420457,1472.23
1569990349.942255,1482.4
1569990349.9749146,1475.73
1569990349.9751081,1481.35
1569990349.975235,1484.09
1569990350.0081453,1480.22
1569990350.0083191,1487.86
1569990350.008444,1478.66
1569990350.0085967,1490.69
1569990350.0414746,1481.93
1569990350.041785,1490.01
1569990350.0419877,1485.52
1569990350.074687,1487.99
1569990350.0750203,1492.47
1569990350.0752275,1484.79
1569990350.075413,1494.88
1569990350.108096,1488.41
1569990350.1083531,1503.82
1569990350.1084888,1501.74
1569990350.1086137,1515.88
1569990350.1414928,1522.74
1569990350.1418135,1534.19
1569990350.142035,1552.79
1569990350.1745498,1554.26
1569990350.1746984,1574.86
1569990350.174815,1574.67
1569990350.1749191,1590.23
1569990350.2079084,1591.57
1569990350.208122,1599.58
1569990350.2083032,1608.27
1569990350.241134,1602.78
1569990350.241343,1612.75
1569990350.241469,1601.19
1569990350.2415729,1609.9
1569990350.2746265,1596.99
1569990350.27481,1596.55
1569990350.2749262,1590.05
1569990350.3076966,1582.91
1569990350.3078969,1583.36
1569990350.3081567,1569.05
1569990350.3084533,1573.38
1569990350.3410387,1557.04
1569990350.3413107,1562.04
1569990350.3416548,1548.72
1569990350.374595,1545.36
1569990350.3749332,1542.42
1569990350.3751967,1533.95
1569990350.3754213,1538.46
1569990350.4076452,1523.21
1569990350.4078054,1529.98
1569990350.4080799,1516.27
1569990350.4085028,1515.97
1569990350.4409034,1510.74
1569990350.4410565,1505.23
1569990350.4411838,1508.65
1569990350.4747505,1496.85
1569990350.475011,1503.89
1569990350.4751844,1490.13
1569990350.4753647,1498.21
1569990350.5074563,1490.33
1569990350.5076272,1492.33
1569990350.5077426,1494.81
1569990350.5408823,1492.01
1569990350.5411673,1501.14
1569990350.541408,1489.92
1569990350.5415978,1500.1
1569990350.57489,1489.8
1569990350.575143,1496.85
1569990350.575292,1490.13
1569990350.6073573,1487.62
1569990350.6076953,1491.16
1569990350.607914,1483.38
1569990350.6080992,1492.15
1569990350.6407437,1480.15
1569990350.6410215,1488.2
1569990350.641257,1478.86
1569990350.6739106,1478.27
1569990350.6740592,1478.35
1569990350.6741617,1472.81
1569990350.6742673,1481.17
1569990350.707311,1468.92
1569990350.7075415,1478.68
1569990350.7078543,1468.84
1569990350.7081542,1475.2
1569990350.7406533,1468.79
1569990350.7409213,1466.0
1569990350.7411397,1469.26
1569990350.7739038,1461.88
1569990350.7741709,1471.34
1569990350.7743871,1459.33
1569990350.774637,1469.34
1569990350.8070993,1460.95
1569990350.807225,1464.94
1569990350.8073256,1460.43
1569990350.840535,1455.21
1569990350.8407774,1461.45
1569990350.8410306,1451.9
1569990350.8412447,1462.32
1569990350.873802,1452.98
1569990350.8740025,1460.0
1569990350.8741367,1454.53
1569990350.906992,1451.84
1569990350.9071589,1455.78
1569990350.9073024,1449.16
1569990350.9074337,1459.7
1569990350.9404938,1447.93
1569990350.9409378,1458.18
1569990350.9413066,1450.94
1569990350.9735706,1456.18
1569990350.9737322,1453.97
1569990350.9738576,1449.84
1569990350.9739792,1456.69
1569990351.006883,1448.43
1569990351.007119,1460.18
1569990351.0072725,1450.28
1569990351.007429,1459.98
1569990351.04025,1455.15
1569990351.0404017,1457.75
1569990351.040638,1457.88
1569990351.0737908,1451.29
1569990351.0742118,1459.82
1569990351.0746276,1449.28
1569990351.0749707,1458.91
1569990351.1068678,1451.9
1569990351.1070325,1456.95
1569990351.1071665,1454.94
1569990351.140105,1450.87
1569990351.1403775,1457.92
1569990351.1406162,1449.52
1569990351.1408446,1460.37
1569990351.1733994,1449.91
1569990351.173619,1459.22
1569990351.1738014,1454.91
1569990351.2067692,1457.84
1569990351.2069705,1458.83
1569990351.2071557,1453.1
1569990351.2073886,1462.23
1569990351.2400382,1452.87
1569990351.2402618,1463.36
1569990351.2405474,1454.42
1569990351.2731943,1462.64
1569990351.2733412,1460.42
1569990351.2734544,1459.97
1569990351.2735627,1462.02
1569990351.3066225,1453.25
1569990351.3068562,1463.9
1569990351.307091,1454.15
1569990351.3073084,1462.98
1569990351.3399312,1457.6
1569990351.3401659,1459.47
1569990351.340404,1459.38
1569990351.3731735,1452.25
1569990351.373414,1460.84
1569990351.3735745,1450.95
1569990351.373729,1461.46
1569990351.4064264,1451.68
1569990351.4066496,1457.09
1569990351.4068022,1450.22
1569990351.4397235,1444.9
1569990351.4399607,1441.18
1569990351.4401393,1426.61
1569990351.440307,1433.49
1569990351.4730644,1420.7
1569990351.4732733,1428.16
1569990351.4734502,1419.79
1569990351.5063367,1426.22
1569990351.5066285,1427.46
1569990351.5068498,1424.78
1569990351.5070243,1430.96
1569990351.5395951,1423.06
1569990351.5397613,1435.52
1569990351.53988,1427.53
1569990351.5728536,1436.42
1569990351.573045,1435.43
1569990351.5731907,1436.42
1569990351.573329,1440.58
1569990351.606271,1433.9
1569990351.6064968,1445.21
1569990351.606688,1437.16
1569990351.6068268,1448.39
1569990351.6395674,1442.04
1569990351.639814,1449.41
1569990351.6400175,1451.52
1569990351.6727648,1449.62
1569990351.6730108,1456.39
1569990351.6731749,1448.77
1569990351.6733308,1461.21
1569990351.706151,1453.09
1569990351.7063813,1462.23
1569990351.7066984,1457.86
1569990351.7393823,1462.25
1569990351.7397757,1466.34
1569990351.7399774,1461.57
1569990351.7401597,1469.95
1569990351.772671,1460.08
1569990351.7728972,1470.83
1569990351.7730517,1461.93
1569990351.8059468,1467.58
1569990351.8062875,1468.54
1569990351.8066628,1465.95
1569990351.8068838,1471.95
1569990351.839221,1463.09
1569990351.8394318,1474.68
1569990351.839772,1465.19
1569990351.8725595,1472.97
1569990351.8728478,1467.82
1569990351.873094,1470.71
1569990351.8733673,1473.01
1569990351.9058533,1466.52
1569990351.9060469,1473.56
1569990351.9062014,1462.61
1569990351.9063482,1472.35
1569990351.9392025,1462.26
1569990351.9394352,1467.36
1569990351.9396496,1464.28
1569990351.9724464,1464.25
1569990351.9727821,1469.31
1569990351.9730759,1461.26
1569990351.9733598,1470.79
1569990352.006164,1461.24
1569990352.0064008,1471.66
1569990352.0066555,1464.0
1569990352.0390115,1466.77
1569990352.0392206,1469.99
1569990352.0394094,1463.77
1569990352.039583,1471.3
1569990352.072401,1460.78
1569990352.0726635,1470.58
1569990352.072899,1460.61
1569990352.1055598,1465.11
1569990352.1057398,1461.07
1569990352.1059105,1459.87
1569990352.1062233,1464.15
1569990352.1388783,1455.26
1569990352.1390882,1464.75
1569990352.1392453,1454.74
1569990352.1721234,1464.5
1569990352.1723073,1456.72
1569990352.1724994,1460.02
1569990352.17268,1459.68
1569990352.205469,1456.14
1569990352.2056918,1462.82
1569990352.2058368,1452.2
1569990352.2059724,1462.07
1569990352.2387893,1453.24
1569990352.2389755,1461.99
1569990352.2391472,1456.08
1569990352.2721226,1456.6
1569990352.2723005,1463.89
1569990352.2725441,1456.72
1569990352.2727966,1467.38
1569990352.305403,1458.93
1569990352.3056,1469.42
1569990352.3057756,1462.7
1569990352.3386595,1466.6
1569990352.3388288,1467.71
1569990352.338975,1466.45
1569990352.3391116,1476.0
1569990352.371954,1467.29
1569990352.3721395,1479.85
1569990352.372298,1472.18
1569990352.4052155,1481.19
1569990352.405422,1476.07
1569990352.4055932,1476.47
1569990352.4057631,1479.84
1569990352.4386592,1475.3
1569990352.4388947,1484.53
1569990352.4390314,1473.3
1569990352.4721048,1483.71
1569990352.472342,1476.62
1569990352.4725266,1483.34
1569990352.472703,1479.69
1569990352.5051587,1476.5
1569990352.505364,1485.2
1569990352.5055811,1475.72
1569990352.5057492,1486.75
1569990352.538646,1477.99
1569990352.538879,1486.21
1569990352.539068,1480.35
