1575319828.287311,0.0
1575319828.29546,0.0
1575319828.299275,0.0
1575319828.3071501,0.0
1575319828.315287,0.0
1575319828.319693,0.0
1575319828.327584,0.0
1575319828.3317592,0.0
1575319828.339846,0.0
1575319828.344019,0.0
1575319828.352851,0.0
1575319828.356427,0.0
1575319828.364501,0.0
1575319828.369549,0.0
1575319828.376699,0.0
1575319828.381089,0.0
1575319828.3892128,0.0
1575319828.3933902,0.0
1575319828.40167,0.0
1575319828.4056342,0.0
1575319828.41376,0.0
1575319828.417892,0.0
1575319828.4261189,0.0
1575319828.430232,0.0
1575319828.438346,0.0
1575319828.446547,0.0
1575319828.4507651,0.0
1575319828.4588108,0.0
1575319828.4629009,0.0
1575319828.471203,0.0
1575319828.475253,0.0
1575319828.483375,0.0
1575319828.487556,0.0
1575319828.495602,0.0
1575319828.5000021,0.0
1575319828.507931,0.0
1575319828.511905,0.0
1575319828.5205278,0.0
1575319828.524247,0.0
1575319828.5324469,0.0
1575319828.537025,0.0
1575319828.5447638,0.0
1575319828.548831,0.0
1575319828.556918,0.0
1575319828.560957,0.0
1575319828.5699468,0.0
1575319828.577413,0.0
1575319828.581728,0.0
1575319828.589757,0.0
1575319828.593775,0.0
1575319828.602703,0.0
1575319828.606004,0.0
1575319828.614548,0.0
1575319828.6192498,0.0
1575319828.626457,0.0
1575319828.63086,0.0
1575319828.6388779,0.0
1575319828.642996,0.0
1575319828.651117,0.0
1575319828.6555479,0.0
1575319828.663529,0.0
1575319828.667474,0.0
1575319828.6756659,0.0
1575319828.679971,0.0
1575319828.688586,0.0
1575319828.6923351,0.0
1575319828.700344,0.0
1575319828.708535,0.0
1575319828.712694,0.0
1575319828.721248,0.0
1575319828.724857,0.0
1575319828.733334,0.0
1575319828.738102,0.0
1575319828.7453902,0.0
1575319828.749459,0.0
1575319828.75766,0.0
1575319828.7616608,0.0
1575319828.7703848,0.0
1575319828.774029,0.0
1575319828.7823622,0.0
1575319828.786925,0.0
1575319828.794576,0.0
1575319828.798497,0.0
1575319828.806901,0.0
1575319828.8108318,0.0
1575319828.819576,0.0
1575319828.823206,0.0
1575319828.831488,0.0
1575319828.8361862,0.0
1575319828.8436391,0.0
1575319828.852749,0.0
1575319828.8559492,0.0
1575319828.8642519,0.0
1575319828.868764,0.0
1575319828.876396,0.0
1575319828.880826,0.0
1575319828.8890822,0.0
1575319828.893135,0.0
1575319828.9018939,0.0
1575319828.9052532,0.0
1575319828.913439,0.0
1575319828.918796,0.0
1575319828.92556,0.0
1575319828.929881,0.0
1575319828.9383821,0.0
1575319828.9420412,0.0
1575319828.950242,0.0
1575319828.954731,0.0
1575319828.962467,0.0
1575319828.966691,0.0
1575319828.974682,0.0
1575319828.9831161,0.0
1575319828.987614,0.0
1575319828.995351,0.0
1575319828.999524,0.0
1575319829.007477,0.0
1575319829.0115478,0.0
1575319829.020459,0.0
1575319829.0238662,0.0
1575319829.0322292,0.0
1575319829.037796,0.0
1575319829.0443552,0.0
1575319829.048634,0.0
1575319829.056701,0.0
1575319829.0606642,0.0
1575319829.069769,0.0
1575319829.073078,0.0
1575319829.081386,0.0
1575319829.0859032,0.0
1575319829.0934541,0.0
1575319829.097756,0.0
1575319829.105815,0.0
1575319829.1141498,0.0
1575319829.119117,0.0
1575319829.126177,0.0
1575319829.130543,0.0
1575319829.138978,0.0
1575319829.142736,0.0
1575319829.1510458,0.0
1575319829.155516,0.0
1575319829.1631339,0.0
1575319829.167329,0.0
1575319829.175493,0.0
1575319829.179717,0.0
1575319829.188313,0.0
1575319829.191919,0.0
1575319829.20029,0.0
1575319829.204821,0.0
1575319829.2124212,0.0
1575319829.216626,0.0
1575319829.224597,0.0
1575319829.228652,0.0
1575319829.2371998,0.0
1575319829.245174,0.0
1575319829.249296,0.0
1575319829.257388,0.0
1575319829.2613518,0.0
1575319829.270169,0.0
1575319829.273717,0.0
1575319829.282122,0.0
1575319829.28741,0.0
1575319829.294164,0.0
1575319829.2984781,0.0
1575319829.3065999,0.0
1575319829.310501,0.0
1575319829.319798,0.0
1575319829.322986,0.0
1575319829.331025,0.0
1575319829.336556,0.0
1575319829.3433359,0.0
1575319829.3477728,0.0
1575319829.355625,0.0
1575319829.359772,0.0
1575319829.3683462,0.0
1575319829.376064,0.0
1575319829.380387,0.0
1575319829.388911,0.0
1575319829.392629,0.0
1575319829.400958,0.0
1575319829.4052749,0.0
1575319829.412956,0.0
1575319829.417451,0.0
1575319829.425241,0.0
1575319829.429513,0.0
1575319829.438113,0.0
1575319829.441758,0.0
1575319829.450379,0.0
1575319829.454426,0.0
1575319829.462178,0.0
1575319829.4664042,0.0
1575319829.474593,0.0
1575319829.478652,0.0
1575319829.487115,0.0
1575319829.490914,0.0
1575319829.499061,0.0
1575319829.507216,0.0
1575319829.511262,0.0
1575319829.520021,0.0
1575319829.523577,0.0
1575319829.532106,0.0
1575319829.537436,0.0
1575319829.544169,0.0
1575319829.548498,0.0
1575319829.556417,0.0
1575319829.5604212,0.0
1575319829.5693288,0.0
1575319829.572762,0.0
1575319829.581055,0.0
1575319829.585803,0.0
1575319829.5931678,0.0
1575319829.597666,0.0
1575319829.605974,0.0
1575319829.609666,0.05
1575319829.617949,0.71
1575319829.6222389,2.11
1575319829.630249,4.94
1575319829.638314,6.73
1575319829.642391,8.29
1575319829.65075,10.42
1575319829.658779,14.65
1575319829.663063,19.58
1575319829.671634,27.04
1575319829.679421,31.66
1575319829.6879659,35.12
1575319829.69155,36.32
1575319829.6999822,38.05
1575319829.707961,45.42
1575319829.71656,57.42
1575319829.72435,67.46
1575319829.728417,80.44
1575319829.7369988,92.27
1575319829.7449112,100.53
1575319829.753321,111.2
1575319829.7613618,124.17
1575319829.77023,132.46
1575319829.777515,137.33
1575319829.786415,139.17
1575319829.794039,140.1
1575319829.802818,142.5
1575319829.8104582,149.0
1575319829.8194041,156.57
1575319829.826679,164.81
1575319829.838884,172.97
1575319829.847455,181.17
1575319829.855971,190.09
1575319829.8635771,199.76
1575319829.872247,212.16
1575319829.880192,221.26
1575319829.888713,229.7
1575319829.8962848,237.79
1575319829.90505,245.73
1575319829.912886,253.12
1575319829.921309,259.9
1575319829.929225,263.51
1575319829.9377952,267.07
1575319829.945612,272.26
1575319829.9541261,279.15
1575319829.961992,286.79
1575319829.970474,295.84
1575319829.978389,301.09
1575319829.986979,304.15
1575319829.9947672,306.23
1575319830.0039349,309.14
1575319830.011155,313.78
1575319830.0209138,321.91
1575319830.027348,329.05
1575319830.036644,336.44
1575319830.043761,343.99
1575319830.0526102,351.52
1575319830.06025,359.04
1575319830.069609,366.47
1575319830.076513,375.89
1575319830.085485,383.6
1575319830.0972412,391.83
1575319830.1056159,400.91
1575319830.113554,410.83
1575319830.1221209,421.84
1575319830.1299572,437.29
1575319830.138585,450.37
1575319830.1463108,464.16
1575319830.154954,477.5
1575319830.162706,489.84
1575319830.171287,500.9
1575319830.179094,512.89
1575319830.187724,520.61
1575319830.1954172,526.01
1575319830.20416,529.3
1575319830.2118652,531.51
1575319830.220279,533.59
1575319830.228232,536.66
1575319830.237749,538.13
1575319830.244666,538.05
1575319830.253259,537.24
1575319830.260842,536.3
1575319830.2699158,535.55
1575319830.2773602,535.27
1575319830.285902,535.93
1575319830.293799,537.07
1575319830.302819,537.7
1575319830.310011,537.93
1575319830.319807,538.94
1575319830.326404,541.5
1575319830.335971,545.83
1575319830.342779,549.64
1575319830.351244,554.21
1575319830.363518,559.56
1575319830.372046,565.36
1575319830.379786,570.8
1575319830.388389,577.69
1575319830.396197,583.8
1575319830.404945,590.61
1575319830.41254,598.28
1575319830.421182,606.29
1575319830.4290009,613.87
1575319830.437418,621.09
1575319830.445392,624.47
1575319830.453818,626.21
1575319830.4617338,627.1
1575319830.4705632,627.82
1575319830.4779189,629.32
1575319830.486871,632.47
1575319830.4944031,639.36
1575319830.503205,646.5
1575319830.510819,653.9
1575319830.5208461,661.37
1575319830.5271978,667.72
1575319830.536726,672.37
1575319830.5435011,676.71
1575319830.552342,680.37
1575319830.5598998,684.58
1575319830.569817,689.35
1575319830.576267,694.48
1575319830.585401,700.1
1575319830.592681,710.24
1575319830.601064,720.12
1575319830.609044,728.99
1575319830.617453,734.45
1575319830.629647,735.86
1575319830.638297,734.51
1575319830.6460109,732.39
1575319830.654708,733.54
1575319830.6624022,738.21
1575319830.6711261,744.77
1575319830.678782,750.03
1575319830.687312,751.2
1575319830.695016,748.29
1575319830.703923,745.63
1575319830.711585,750.61
1575319830.7208042,763.93
1575319830.72786,783.49
1575319830.736514,805.86
1575319830.744242,830.28
1575319830.753346,865.21
1575319830.760632,898.33
1575319830.7694771,935.32
1575319830.777098,973.76
1575319830.786641,1010.16
1575319830.797662,1048.62
1575319830.805682,1077.51
1575319830.813793,1092.26
1575319830.826211,1098.0
1575319830.835677,1089.63
1575319830.842526,1074.81
1575319830.850865,1049.58
1575319830.863223,1019.31
1575319830.8717482,993.95
1575319830.8794801,965.8
1575319830.8881788,949.19
1575319830.8959239,939.03
1575319830.9045901,934.05
1575319830.9123452,932.27
1575319830.9207838,932.07
1575319830.928659,931.66
1575319830.937088,930.65
1575319830.94505,929.56
1575319830.954196,928.62
1575319830.9614148,928.17
1575319830.9698932,928.49
1575319830.977851,929.71
1575319830.9864829,934.02
1575319830.994148,940.81
1575319831.003337,949.85
1575319831.010431,958.93
1575319831.019854,965.08
1575319831.026792,967.09
1575319831.0351958,965.82
1575319831.043215,964.76
1575319831.0516648,965.24
1575319831.059565,967.44
1575319831.069107,971.17
1575319831.075989,976.49
1575319831.088773,984.2
1575319831.09658,990.26
1575319831.1051772,995.41
1575319831.1129758,999.54
1575319831.1216269,1003.85
1575319831.129366,1010.15
1575319831.1378508,1017.77
1575319831.150029,1024.56
1575319831.157989,1034.08
1575319831.1661508,1044.14
1575319831.1783118,1051.2
1575319831.187268,1057.43
1575319831.194929,1059.59
1575319831.2038279,1058.74
1575319831.215517,1055.19
1575319831.223426,1051.28
1575319831.231735,1049.76
1575319831.2438478,1050.85
1575319831.2526069,1054.47
1575319831.260473,1058.54
1575319831.269399,1064.81
1575319831.280768,1070.9
1575319831.289115,1074.38
1575319831.297288,1076.16
1575319831.309391,1075.95
1575319831.3178399,1075.61
1575319831.325978,1076.21
1575319831.3343859,1078.76
1575319831.3465059,1082.56
1575319831.3550642,1088.22
1575319831.362869,1091.51
1575319831.374948,1089.51
1575319831.383574,1083.48
1575319831.391464,1070.27
1575319831.400018,1052.22
1575319831.411932,1037.65
1575319831.420425,1023.1
1575319831.428382,1013.9
1575319831.440685,1009.58
1575319831.44885,1006.85
1575319831.456974,1005.71
1575319831.465555,1005.16
1575319831.47749,1004.17
1575319831.486014,1002.04
1575319831.493849,999.32
1575319831.5033228,995.34
1575319831.510232,993.48
1575319831.519661,994.41
1575319831.526549,998.38
1575319831.53544,1003.26
1575319831.547198,1008.64
1575319831.555848,1011.65
1575319831.5635998,1012.36
1575319831.5757928,1010.53
1575319831.5841038,1005.61
1575319831.592157,1000.82
1575319831.600839,997.66
1575319831.608535,999.34
1575319831.6216478,1004.28
1575319831.6290061,1012.02
1575319831.637834,1017.88
1575319831.645513,1020.91
1575319831.6576068,1023.7
1575319831.665904,1027.52
1575319831.674041,1032.72
1575319831.68691,1042.92
1575319831.694531,1056.37
1575319831.703319,1068.64
1575319831.710869,1083.31
1575319831.723257,1095.19
1575319831.731595,1102.8
1575319831.739733,1110.24
1575319831.752667,1115.17
1575319831.760109,1117.06
1575319831.7686532,1116.6
1575319831.776387,1113.77
1575319831.7893078,1111.73
1575319831.79729,1111.71
1575319831.805282,1115.08
1575319831.81745,1120.13
1575319831.825692,1124.49
1575319831.83392,1130.42
1575319831.842041,1137.26
1575319831.854864,1143.26
1575319831.862564,1151.04
1575319831.871171,1158.64
1575319831.883033,1164.12
1575319831.8910851,1169.74
1575319831.8995252,1173.44
1575319831.9075708,1175.6
1575319831.920579,1177.98
1575319831.928101,1179.45
1575319831.936834,1179.75
1575319831.94888,1179.61
1575319831.956817,1179.48
1575319831.964878,1180.04
1575319831.97304,1183.23
1575319831.986798,1189.27
1575319831.993515,1195.11
1575319832.0027351,1201.83
1575319832.014268,1206.98
1575319832.022683,1208.89
1575319832.0305989,1206.87
1575319832.039066,1197.85
1575319832.0509,1184.62
1575319832.059051,1178.38
1575319832.0674791,1183.02
1575319832.07969,1198.83
1575319832.0881221,1213.36
1575319832.096083,1227.25
1575319832.1046798,1232.94
1575319832.116828,1231.45
1575319832.124623,1224.11
1575319832.133044,1215.83
1575319832.140917,1214.05
1575319832.154298,1224.38
1575319832.1616158,1248.03
1575319832.170232,1270.32
1575319832.182315,1292.49
1575319832.190232,1302.32
1575319832.198505,1302.1
1575319832.2066472,1296.82
1575319832.219585,1291.43
1575319832.226979,1288.7
1575319832.236149,1286.58
1575319832.247754,1284.61
1575319832.2562292,1282.91
1575319832.2641122,1279.15
1575319832.272473,1271.92
1575319832.28456,1262.82
1575319832.292563,1256.65
1575319832.300844,1252.1
1575319832.313013,1250.8
1575319832.321887,1250.8
1575319832.329421,1250.76
1575319832.338051,1250.6
1575319832.350271,1250.7
1575319832.358067,1251.09
1575319832.3666549,1252.76
1575319832.378433,1255.93
1575319832.387414,1261.88
1575319832.395089,1266.63
1575319832.4039009,1267.51
1575319832.415595,1264.87
1575319832.4236338,1258.96
1575319832.432044,1252.51
1575319832.443996,1244.74
1575319832.452985,1238.54
1575319832.4605298,1234.18
1575319832.469857,1229.72
1575319832.480911,1227.14
1575319832.489311,1227.42
1575319832.4974878,1230.9
1575319832.509577,1236.74
1575319832.5179782,1243.45
1575319832.525963,1249.14
1575319832.5344708,1256.63
1575319832.546602,1263.02
1575319832.555236,1266.31
1575319832.563071,1268.56
1575319832.575288,1269.98
1575319832.58368,1271.21
1575319832.5915961,1272.9
1575319832.6000361,1273.71
1575319832.612153,1273.02
1575319832.620852,1271.94
1575319832.628587,1272.6
1575319832.6406798,1274.21
1575319832.648829,1278.01
1575319832.657067,1286.69
1575319832.6655738,1296.17
1575319832.67768,1307.17
1575319832.68798,1315.36
1575319832.694314,1319.3
1575319832.7063391,1319.65
1575319832.71454,1315.86
1575319832.7229471,1312.24
1575319832.7310982,1309.42
1575319832.743049,1308.63
1575319832.751543,1307.12
1575319832.7594528,1304.14
1575319832.772162,1299.82
1575319832.780087,1296.9
1575319832.7887528,1295.45
1575319832.796534,1293.41
1575319832.808671,1290.5
1575319832.81701,1287.89
1575319832.825116,1284.27
1575319832.838486,1280.18
1575319832.845471,1276.73
1575319832.8542552,1272.12
1575319832.862049,1264.56
1575319832.874222,1253.09
1575319832.8824608,1229.82
1575319832.890573,1201.0
1575319832.903291,1180.94
1575319832.911168,1165.28
1575319832.919863,1160.11
1575319832.927425,1159.3
1575319832.939696,1157.63
1575319832.94815,1154.4
1575319832.956178,1152.04
1575319832.968632,1150.93
1575319832.976532,1152.31
1575319832.9853241,1156.52
1575319832.992906,1161.98
1575319833.005672,1170.1
1575319833.013647,1177.23
1575319833.022115,1181.21
1575319833.0340328,1185.23
1575319833.042124,1191.01
1575319833.0506828,1197.38
1575319833.058917,1205.49
1575319833.0712562,1212.17
1575319833.078942,1216.98
1575319833.087256,1222.9
1575319833.099366,1228.5
1575319833.1080372,1233.13
1575319833.115851,1238.11
1575319833.1244779,1239.79
1575319833.136236,1238.73
1575319833.144751,1237.9
1575319833.152993,1240.99
1575319833.164969,1244.92
1575319833.1734788,1248.94
1575319833.181667,1252.66
1575319833.1904662,1257.92
1575319833.201857,1268.21
1575319833.210131,1280.59
1575319833.219994,1291.82
1575319833.2305448,1298.52
1575319833.239121,1303.07
1575319833.246825,1303.55
1575319833.255956,1302.83
1575319833.267393,1302.34
1575319833.275601,1302.52
1575319833.283801,1302.0
1575319833.296027,1299.41
1575319833.3073978,1295.67
1575319833.312531,1293.19
1575319833.3207092,1291.46
1575319833.333028,1291.15
1575319833.341569,1291.2
1575319833.349409,1291.5
1575319833.361574,1291.32
1575319833.372492,1290.85
1575319833.377953,1290.38
1575319833.3875651,1289.68
1575319833.398468,1288.7
1575319833.40701,1286.87
1575319833.4150321,1285.46
1575319833.427219,1284.91
1575319833.439765,1284.36
1575319833.443639,1282.27
1575319833.45173,1278.45
1575319833.4639459,1275.46
1575319833.472738,1271.49
1575319833.4803998,1267.18
1575319833.492769,1264.29
1575319833.506699,1263.51
1575319833.509078,1267.36
1575319833.51759,1272.74
1575319833.529432,1278.98
1575319833.5389209,1281.4
1575319833.545923,1280.56
1575319833.5585332,1276.91
1575319833.566478,1270.33
1575319833.574925,1263.25
1575319833.582797,1256.48
1575319833.5951512,1257.05
1575319833.60572,1262.63
1575319833.611493,1270.58
1575319833.623667,1274.72
1575319833.632318,1274.68
1575319833.641245,1271.36
1575319833.648315,1266.3
1575319833.6605592,1262.64
1575319833.6691048,1260.66
1575319833.677045,1262.52
1575319833.689634,1268.27
1575319833.697522,1275.15
1575319833.706929,1283.61
1575319833.713797,1288.93
1575319833.726186,1290.72
1575319833.734567,1292.05
1575319833.742715,1295.31
1575319833.755321,1301.07
1575319833.762944,1311.88
1575319833.771938,1326.87
1575319833.7793899,1342.3
1575319833.791787,1363.55
1575319833.801523,1381.96
1575319833.809393,1392.85
1575319833.8203452,1402.99
1575319833.828547,1410.76
1575319833.838361,1415.89
1575319833.844884,1419.79
1575319833.857439,1419.27
1575319833.8653388,1415.94
1575319833.873869,1410.2
1575319833.886028,1403.89
1575319833.894156,1396.57
1575319833.9023519,1381.63
1575319833.9105809,1362.28
1575319833.923061,1348.45
1575319833.930856,1348.76
1575319833.93988,1364.14
1575319833.951672,1387.01
1575319833.959682,1403.06
1575319833.967894,1415.74
1575319833.976176,1420.78
1575319833.9889889,1421.77
1575319833.9964411,1422.1
1575319834.005346,1422.64
1575319834.017049,1422.88
1575319834.025252,1421.73
1575319834.033634,1419.83
1575319834.041569,1419.4
1575319834.0539498,1421.01
1575319834.062065,1424.49
1575319834.070274,1429.33
1575319834.082488,1439.21
1575319834.0909498,1452.46
1575319834.098955,1463.25
1575319834.107556,1472.8
1575319834.119605,1476.28
1575319834.1275752,1477.41
1575319834.1359282,1479.22
1575319834.1480231,1478.22
1575319834.156503,1471.0
1575319834.1644459,1461.71
1575319834.173345,1450.12
1575319834.185044,1443.15
1575319834.193106,1442.25
1575319834.201308,1445.17
1575319834.2135339,1447.03
1575319834.222184,1445.45
1575319834.2301922,1441.54
1575319834.239636,1440.61
1575319834.250423,1443.59
1575319834.2586071,1447.77
1575319834.2668931,1443.58
1575319834.27907,1428.71
1575319834.28897,1396.49
1575319834.295561,1358.29
1575319834.308576,1331.46
1575319834.315905,1308.4
1575319834.3246899,1296.0
1575319834.332501,1291.3
1575319834.344553,1288.35
1575319834.3563788,1288.76
1575319834.360991,1292.24
1575319834.372254,1297.63
1575319834.3814871,1300.8
1575319834.389875,1302.37
1575319834.397894,1304.88
1575319834.410201,1311.58
1575319834.418419,1320.83
1575319834.4268851,1328.35
1575319834.435099,1336.76
1575319834.4473112,1343.86
1575319834.4556549,1347.94
1575319834.463377,1350.57
1575319834.475822,1351.89
1575319834.4840682,1353.12
1575319834.4921448,1354.65
1575319834.500565,1355.44
1575319834.5127249,1355.22
1575319834.5234408,1353.82
1575319834.539718,1353.07
1575319834.54178,1355.61
1575319834.5496461,1365.02
1575319834.558451,1378.85
1575319834.5659,1390.03
1575319834.585077,1400.83
1575319834.587268,1407.15
1575319834.594592,1409.5
1575319834.6071308,1411.51
1575319834.614947,1413.71
1575319834.623457,1415.77
1575319834.631437,1417.16
1575319834.6436212,1419.3
1575319834.652875,1423.59
1575319834.6601238,1430.3
1575319834.672766,1442.85
1575319834.680485,1456.01
1575319834.689227,1463.91
1575319834.69688,1469.95
1575319834.709195,1474.32
1575319834.717498,1478.48
1575319834.725965,1486.43
1575319834.7379808,1498.14
1575319834.746468,1507.82
1575319834.754592,1516.16
1575319834.762461,1521.75
1575319834.774806,1529.18
1575319834.782881,1544.15
1575319834.791452,1560.13
1575319834.8038452,1569.9
1575319834.811775,1577.29
1575319834.8247738,1580.64
1575319834.828109,1580.68
1575319834.8409421,1578.18
1575319834.8485088,1575.45
1575319834.8572319,1572.7
1575319834.86901,1569.81
1575319834.877345,1567.3
1575319834.885505,1568.82
1575319834.893952,1572.43
1575319834.906361,1577.81
1575319834.914291,1580.61
1575319834.92255,1578.18
1575319834.93445,1570.86
1575319834.943126,1563.55
1575319834.951017,1562.5
1575319834.959059,1573.63
1575319834.9724789,1601.32
1575319834.979529,1631.0
1575319834.988606,1669.98
1575319835.000083,1710.04
1575319835.0083048,1744.58
1575319835.0164669,1787.12
1575319835.0246232,1821.1
1575319835.037431,1837.71
1575319835.045095,1842.38
1575319835.053985,1826.19
1575319835.0659041,1797.8
1575319835.074131,1746.94
1575319835.081959,1688.86
1575319835.090667,1633.61
1575319835.1024551,1593.45
1575319835.110655,1547.37
1575319835.118848,1506.56
1575319835.131059,1478.26
1575319835.139827,1448.93
1575319835.147368,1425.33
1575319835.156511,1410.08
1575319835.16845,1396.21
1575319835.176168,1388.63
1575319835.1844711,1386.83
1575319835.196599,1388.26
1575319835.205811,1390.62
1575319835.2129438,1391.82
1575319835.221937,1392.88
1575319835.23349,1394.91
1575319835.241728,1397.79
1575319835.249867,1403.49
1575319835.262391,1411.37
1575319835.2707589,1417.45
1575319835.2786381,1422.6
1575319835.286902,1425.23
1575319835.2989671,1425.6
1575319835.307636,1420.74
1575319835.315787,1404.53
1575319835.3276942,1374.96
1575319835.3359392,1346.39
1575319835.344265,1313.23
1575319835.3526342,1288.61
1575319835.3646479,1275.91
1575319835.3732202,1265.98
1575319835.380903,1258.7
1575319835.393192,1253.72
1575319835.40147,1250.01
1575319835.409821,1249.63
1575319835.418405,1249.74
1575319835.430094,1248.09
1575319835.438818,1244.07
1575319835.4464629,1240.55
1575319835.458768,1238.19
1575319835.467082,1240.08
1575319835.475165,1244.39
1575319835.483402,1251.52
1575319835.495554,1258.82
1575319835.5050461,1264.48
1575319835.512063,1272.18
1575319835.5244129,1280.33
1575319835.532476,1287.19
1575319835.541096,1296.19
1575319835.548963,1304.12
1575319835.561244,1309.78
1575319835.5712159,1312.9
1575319835.577743,1315.24
1575319835.589854,1315.73
1575319835.59828,1314.94
1575319835.606192,1313.98
1575319835.61472,1314.81
1575319835.626837,1316.74
1575319835.635297,1318.95
1575319835.64312,1320.21
1575319835.655883,1320.82
1575319835.6637561,1322.91
1575319835.672354,1328.82
1575319835.680199,1336.93
1575319835.692372,1350.27
1575319835.700778,1364.43
1575319835.708746,1373.83
1575319835.721621,1381.34
1575319835.7292612,1384.57
1575319835.738076,1385.68
1575319835.7457888,1387.2
1575319835.7577019,1388.88
1575319835.7660701,1389.54
1575319835.7742,1388.86
1575319835.787626,1390.54
1575319835.794813,1400.71
1575319835.803777,1415.49
1575319835.81156,1436.97
1575319835.823263,1455.13
1575319835.831551,1465.49
1575319835.840002,1474.71
1575319835.853494,1481.48
1575319835.860138,1485.07
1575319835.868481,1486.98
1575319835.876541,1486.93
1575319835.889302,1486.04
1575319835.8972611,1484.48
1575319835.9062028,1483.74
1575319835.917831,1483.21
1575319835.925813,1481.99
1575319835.9343302,1480.4
1575319835.942116,1479.49
1575319835.955124,1479.07
1575319835.962825,1479.17
1575319835.971458,1479.43
1575319835.9831831,1479.7
1575319835.991195,1479.81
1575319835.9996018,1479.06
1575319836.0076768,1476.77
1575319836.022014,1474.3
1575319836.028328,1474.03
1575319836.03759,1475.28
1575319836.049092,1476.68
1575319836.056809,1476.6
1575319836.065393,1475.43
1575319836.0739331,1473.64
1575319836.086488,1473.08
1575319836.0940402,1474.03
1575319836.102165,1476.41
1575319836.114233,1479.99
1575319836.122417,1483.29
1575319836.130691,1487.26
1575319836.139565,1490.07
1575319836.155105,1491.08
1575319836.159319,1492.37
1575319836.1706471,1495.47
1575319836.179893,1499.62
1575319836.188738,1506.07
1575319836.196265,1511.47
1575319836.205,1514.57
1575319836.2166889,1518.05
1575319836.224908,1518.95
1575319836.2329862,1514.72
1575319836.245364,1500.31
1575319836.254643,1478.19
1575319836.26174,1454.24
1575319836.270904,1438.09
1575319836.2824802,1424.22
1575319836.29021,1415.92
1575319836.298799,1410.35
1575319836.310899,1401.92
1575319836.322428,1391.65
1575319836.3274,1384.74
1575319836.335417,1381.1
1575319836.347646,1381.86
1575319836.35603,1383.43
1575319836.3641798,1384.24
1575319836.3727071,1383.7
1575319836.3848598,1383.2
1575319836.3928242,1381.94
1575319836.401076,1379.39
1575319836.413255,1376.58
1575319836.422234,1372.05
1575319836.429776,1365.61
1575319836.438572,1359.39
1575319836.4505239,1352.3
1575319836.4583528,1347.48
1575319836.46651,1344.78
1575319836.4787169,1341.92
1575319836.488599,1340.01
1575319836.4952161,1341.28
1575319836.504289,1347.39
1575319836.515959,1361.81
1575319836.5237691,1379.94
1575319836.532446,1394.12
1575319836.5441768,1409.1
1575319836.5530171,1419.25
1575319836.560631,1423.43
1575319836.570805,1425.79
1575319836.581383,1429.05
1575319836.589854,1434.34
1575319836.597693,1443.41
1575319836.609776,1452.08
1575319836.618207,1457.62
1575319836.6262321,1462.96
1575319836.634559,1467.24
1575319836.646919,1470.7
1575319836.6556082,1475.56
1575319836.66332,1479.95
1575319836.675352,1483.01
1575319836.68373,1486.11
1575319836.691652,1488.31
1575319836.700264,1489.48
1575319836.7124648,1487.87
1575319836.721206,1482.32
1575319836.728735,1478.24
1575319836.740729,1478.98
1575319836.7492712,1481.82
1575319836.757174,1481.18
1575319836.765769,1477.74
1575319836.777869,1472.78
1575319836.787524,1468.23
1575319836.7940302,1463.42
1575319836.806612,1454.99
1575319836.814742,1445.35
1575319836.822845,1437.42
1575319836.831054,1428.62
1575319836.843284,1421.15
1575319836.853198,1414.51
1575319836.8596292,1403.08
1575319836.8724601,1388.27
1575319836.880333,1375.58
1575319836.888957,1358.98
1575319836.896755,1344.53
1575319836.908833,1340.69
1575319836.9174259,1351.54
1575319836.925338,1375.04
1575319836.9382,1395.54
1575319836.945867,1416.9
1575319836.954526,1431.83
1575319836.962283,1442.93
1575319836.974282,1451.53
1575319836.9827259,1462.19
1575319836.9907541,1470.6
1575319837.005078,1475.17
1575319837.011351,1479.42
1575319837.021981,1483.21
1575319837.027595,1485.94
1575319837.0398579,1488.46
1575319837.048277,1488.71
1575319837.056248,1486.88
1575319837.070244,1483.51
1575319837.076865,1481.77
1575319837.0852082,1482.47
1575319837.0931368,1483.92
1575319837.105959,1484.3
1575319837.1138701,1483.7
1575319837.12242,1482.99
1575319837.134113,1482.4
1575319837.1422238,1479.26
1575319837.150785,1466.95
1575319837.1586618,1441.58
1575319837.172406,1413.36
1575319837.179444,1375.23
1575319837.1878002,1342.36
1575319837.199627,1320.87
1575319837.207762,1312.15
1575319837.216197,1309.08
1575319837.224153,1309.66
1575319837.238453,1310.75
1575319837.2447062,1313.29
1575319837.2552,1317.37
1575319837.265554,1321.12
1575319837.273497,1326.25
1575319837.28185,1333.53
1575319837.290612,1341.84
1575319837.303631,1355.1
1575319837.310336,1369.99
1575319837.321454,1382.04
1575319837.33074,1396.08
1575319837.339531,1408.52
1575319837.3471801,1416.7
1575319837.356341,1424.19
1575319837.367842,1429.89
1575319837.375749,1433.55
1575319837.384126,1437.76
1575319837.396244,1442.67
1575319837.4051762,1447.99
1575319837.412797,1455.9
1575319837.421333,1460.81
1575319837.43326,1460.76
1575319837.441262,1460.62
1575319837.449586,1464.67
1575319837.461801,1472.03
1575319837.470794,1476.15
1575319837.4784489,1476.45
1575319837.48768,1472.84
1575319837.498943,1470.41
1575319837.5068731,1471.36
1575319837.5153039,1477.77
1575319837.527242,1486.19
1575319837.53685,1499.78
1575319837.543825,1514.99
1575319837.552556,1522.92
1575319837.5644128,1522.49
1575319837.572901,1518.81
1575319837.580873,1521.22
1575319837.592863,1528.27
1575319837.601254,1529.42
1575319837.60926,1522.39
1575319837.6176782,1506.49
1575319837.6298938,1488.92
1575319837.638645,1475.64
1575319837.646343,1461.7
1575319837.658323,1454.03
1575319837.666888,1452.89
1575319837.674818,1453.96
1575319837.683077,1454.37
1575319837.6954188,1452.67
1575319837.7041018,1450.66
1575319837.711676,1449.6
1575319837.723833,1450.6
1575319837.7326021,1452.15
1575319837.740257,1453.94
1575319837.748749,1454.7
1575319837.761006,1454.8
1575319837.770844,1454.48
1575319837.7773728,1452.6
1575319837.790265,1450.49
1575319837.797736,1449.67
1575319837.806208,1451.52
1575319837.81456,1453.67
1575319837.826572,1455.27
1575319837.8348138,1455.59
1575319837.842763,1455.43
1575319837.8553898,1456.02
1575319837.8631449,1457.82
1575319837.871975,1458.64
1575319837.8798468,1456.96
1575319837.892072,1452.98
1575319837.9002838,1450.73
1575319837.9082,1452.42
1575319837.921014,1458.48
1575319837.928869,1464.17
1575319837.937858,1465.97
1575319837.945305,1463.89
1575319837.9573371,1458.11
1575319837.965944,1453.59
1575319837.973751,1450.58
1575319837.987278,1451.25
1575319837.994396,1454.14
1575319838.003874,1458.71
1575319838.0108001,1462.33
1575319838.02305,1464.75
1575319838.031322,1468.86
1575319838.039756,1474.54
1575319838.053659,1479.31
1575319838.0597792,1484.57
1575319838.068171,1490.41
1575319838.0763679,1497.08
1575319838.088953,1506.22
1575319838.09687,1511.72
1575319838.105461,1510.94
1575319838.11748,1504.51
1575319838.125298,1497.33
1575319838.133802,1495.02
1575319838.1417081,1497.14
1575319838.1544251,1500.66
1575319838.162445,1502.27
1575319838.171838,1501.93
1575319838.1827588,1499.8
1575319838.190804,1496.51
1575319838.199454,1493.22
1575319838.2074418,1488.77
1575319838.220192,1485.09
1575319838.22794,1483.53
1575319838.237042,1482.78
1575319838.248565,1481.37
1575319838.2564301,1479.05
1575319838.264873,1476.01
1575319838.273637,1474.49
1575319838.288247,1474.6
1575319838.293396,1476.56
1575319838.305465,1481.34
1575319838.313801,1486.75
1575319838.323073,1492.84
1575319838.330574,1495.38
1575319838.3391,1494.59
1575319838.350712,1492.68
1575319838.358748,1492.68
1575319838.367198,1494.99
1575319838.379209,1496.95
1575319838.388333,1498.61
1575319838.3958132,1501.29
1575319838.404587,1504.69
1575319838.416354,1508.91
1575319838.4243772,1510.4
1575319838.4327328,1508.83
1575319838.444782,1504.13
1575319838.4538171,1498.91
1575319838.461445,1495.41
1575319838.471308,1491.88
1575319838.481785,1489.12
1575319838.489763,1487.76
1575319838.498285,1487.69
1575319838.510484,1489.36
1575319838.520382,1491.58
1575319838.52684,1495.62
1575319838.536627,1500.44
1575319838.547634,1502.38
1575319838.556088,1496.54
1575319838.563725,1475.77
1575319838.576009,1445.94
1575319838.584408,1392.79
1575319838.5923069,1326.42
1575319838.6008089,1251.0
1575319838.613023,1186.51
1575319838.621609,1104.61
1575319838.629375,1025.38
1575319838.6380281,965.99
1575319838.645626,910.66
1575319838.654388,847.86
1575319838.6621492,802.53
1575319838.670429,761.06
1575319838.6785579,723.17
1575319838.690481,689.3
1575319838.698957,660.14
1575319838.706872,629.46
1575319838.715522,608.08
1575319838.7236521,588.39
1575319838.731788,569.55
1575319838.739934,551.57
1575319838.7481291,535.26
1575319838.7560902,522.26
1575319838.764533,511.34
1575319838.773041,506.25
1575319838.7809129,503.06
1575319838.789411,500.49
1575319838.7973728,498.89
1575319838.8060951,498.78
1575319838.8136718,502.66
1575319838.822294,509.63
1575319838.829914,519.55
1575319838.838741,531.74
1575319838.846178,545.38
1575319838.8553832,558.87
1575319838.862724,573.81
1575319838.8711958,584.0
1575319838.8791978,592.79
1575319838.8876622,600.88
1575319838.895553,609.45
1575319838.904864,620.0
1575319838.911998,637.14
1575319838.9205701,653.96
1575319838.928451,671.21
1575319838.937815,687.39
1575319838.9447098,699.81
1575319838.956725,707.8
1575319838.965187,712.43
1575319838.973239,716.65
1575319838.981549,722.05
1575319838.9899461,731.15
1575319838.998006,744.51
1575319839.006485,761.03
1575319839.014457,778.07
1575319839.0234911,794.91
1575319839.030776,802.27
1575319839.039297,804.12
1575319839.047134,803.5
1575319839.0558422,804.38
1575319839.063497,809.57
1575319839.072118,824.06
1575319839.079913,840.82
1575319839.088876,859.78
1575319839.096215,878.77
1575319839.1050339,895.69
1575319839.1127648,908.75
1575319839.122412,918.79
1575319839.1288478,922.57
1575319839.13776,924.73
1575319839.1454139,927.85
1575319839.154388,933.46
1575319839.161799,941.66
1575319839.17085,951.39
1575319839.178248,963.34
1575319839.187532,971.42
1575319839.194585,977.81
1575319839.2038841,982.82
1575319839.211017,986.13
1575319839.2229838,986.69
1575319839.231485,982.87
1575319839.239925,976.75
1575319839.247832,969.6
1575319839.256406,963.39
1575319839.264201,959.54
1575319839.272684,958.24
1575319839.2806568,958.95
1575319839.290129,959.63
1575319839.297058,959.7
1575319839.3053598,959.13
1575319839.313526,959.55
1575319839.324208,962.59
1575319839.329512,973.08
1575319839.3382359,986.76
1575319839.3460171,1002.77
1575319839.35818,1022.18
1575319839.366664,1035.14
1575319839.3745768,1048.56
1575319839.382947,1062.88
1575319839.395354,1077.4
1575319839.404941,1099.67
1575319839.411732,1125.06
1575319839.4236538,1147.24
1575319839.4323862,1177.34
1575319839.440827,1207.6
1575319839.448519,1229.71
1575319839.4608672,1251.81
1575319839.471735,1265.49
1575319839.477046,1271.48
1575319839.489515,1277.35
1575319839.4977841,1285.94
1575319839.5065012,1295.62
1575319839.514068,1310.8
1575319839.526405,1327.51
1575319839.5347142,1340.43
1575319839.5426219,1354.15
1575319839.5556428,1363.29
1575319839.563265,1366.43
1575319839.571787,1365.67
1575319839.579744,1363.19
1575319839.5918012,1362.72
1575319839.600096,1365.35
1575319839.608057,1371.75
1575319839.6221912,1379.42
1575319839.628709,1383.49
1575319839.637554,1382.09
1575319839.6452081,1371.46
1575319839.6571798,1357.37
1575319839.66575,1336.41
1575319839.6735702,1316.32
1575319839.688104,1303.82
1575319839.69405,1294.2
1575319839.7040262,1291.9
1575319839.710741,1294.22
1575319839.7232618,1299.27
1575319839.731303,1304.27
1575319839.739734,1307.09
1575319839.751621,1308.77
1575319839.7596211,1310.92
1575319839.7681978,1313.64
1575319839.775997,1317.92
1575319839.7888598,1323.76
1575319839.79674,1330.26
1575319839.805451,1340.55
1575319839.8177202,1350.42
1575319839.825343,1355.29
1575319839.8336709,1354.08
1575319839.841568,1347.78
1575319839.854841,1340.69
1575319839.862025,1337.82
1575319839.8711522,1339.92
1575319839.882965,1348.3
1575319839.890698,1357.79
1575319839.899343,1369.6
1575319839.90714,1377.78
1575319839.922175,1379.73
1575319839.927577,1377.0
1575319839.936975,1371.75
1575319839.948438,1368.76
1575319839.956793,1369.94
1575319839.9646,1378.03
1575319839.972816,1388.02
1575319839.989179,1400.48
1575319839.993186,1404.3
1575319840.002045,1394.75
1575319840.013856,1370.07
1575319840.0225542,1354.75
1575319840.030079,1367.92
1575319840.038893,1425.83
1575319840.050787,1523.8
1575319840.058602,1645.6
1575319840.067261,1749.14
1575319840.079257,1877.6
1575319840.088017,2000.29
1575319840.0957608,2091.01
1575319840.104318,2189.46
1575319840.116193,2265.37
1575319840.124573,2309.86
1575319840.132849,2350.83
1575319840.140573,2382.71
1575319840.1541262,2404.77
1575319840.161103,2427.63
1575319840.1706681,2444.92
1575319840.1817942,2454.21
1575319840.190359,2459.83
1575319840.19809,2459.1
1575319840.2061691,2454.19
1575319840.218652,2443.8
1575319840.226731,2431.38
1575319840.234998,2425.53
1575319840.247127,2430.23
1575319840.255888,2448.2
1575319840.2635992,2467.0
1575319840.272032,2488.19
1575319840.2842891,2501.11
1575319840.292311,2504.49
1575319840.3009012,2500.83
1575319840.3128,2488.91
1575319840.323408,2470.85
1575319840.329041,2453.92
1575319840.338243,2430.4
1575319840.3495948,2405.93
1575319840.3576808,2387.56
1575319840.3661282,2366.2
1575319840.3783062,2346.83
1575319840.388582,2332.57
1575319840.394634,2316.04
1575319840.4048169,2299.63
1575319840.415304,2286.01
1575319840.423263,2269.11
1575319840.431724,2254.51
1575319840.44403,2245.73
1575319840.454077,2237.17
1575319840.460233,2229.49
1575319840.4686022,2222.31
1575319840.4805639,2208.24
1575319840.489228,2186.82
1575319840.4972641,2166.31
1575319840.5091681,2140.02
1575319840.517705,2116.93
1575319840.52554,2098.0
1575319840.534212,2084.1
1575319840.546232,2066.07
1575319840.5553138,2048.04
1575319840.56267,2034.63
1575319840.5747101,2019.06
1575319840.583091,2004.93
1575319840.591281,1995.12
1575319840.599582,1985.6
1575319840.611764,1980.44
1575319840.620915,1979.11
1575319840.628148,1977.71
1575319840.640264,1972.66
1575319840.6487591,1964.34
1575319840.656704,1948.92
1575319840.665098,1930.83
1575319840.6773498,1917.49
1575319840.690304,1905.57
1575319840.693761,1900.25
1575319840.706379,1899.75
1575319840.714311,1900.06
1575319840.723126,1897.66
1575319840.7306838,1892.09
1575319840.7428632,1880.7
1575319840.751334,1867.17
1575319840.7592,1856.16
1575319840.772537,1852.54
1575319840.7797399,1855.45
1575319840.7884831,1863.4
1575319840.79613,1869.62
1575319840.80814,1872.45
1575319840.816777,1866.66
1575319840.824634,1855.8
1575319840.8384042,1836.23
1575319840.8450649,1813.79
1575319840.8539689,1798.22
1575319840.861672,1786.85
1575319840.873871,1785.8
1575319840.882103,1790.47
1575319840.890149,1799.37
1575319840.904693,1806.68
1575319840.910686,1807.94
1575319840.920883,1800.15
1575319840.927192,1782.18
1575319840.9397209,1762.97
1575319840.947714,1740.1
1575319840.95613,1729.51
1575319840.971287,1735.7
1575319840.976186,1759.35
1575319840.984778,1789.5
1575319840.992682,1815.21
1575319841.005666,1828.74
1575319841.0132182,1834.78
1575319841.021796,1830.39
1575319841.033801,1822.39
1575319841.0416892,1812.84
1575319841.05006,1807.82
1575319841.05809,1806.87
1575319841.070799,1807.47
1575319841.0786839,1808.19
1575319841.0888581,1808.19
1575319841.099475,1807.12
1575319841.107252,1804.26
1575319841.1157918,1799.54
1575319841.1236439,1789.89
1575319841.137759,1777.42
1575319841.144307,1767.19
1575319841.153623,1755.73
1575319841.1649501,1745.77
1575319841.1734972,1738.02
1575319841.181149,1728.13
1575319841.189193,1717.5
1575319841.204362,1708.31
1575319841.209651,1696.27
1575319841.218129,1685.86
1575319841.230232,1679.14
1575319841.239156,1676.44
1575319841.246807,1674.94
1575319841.255401,1673.62
1575319841.267236,1671.03
1575319841.2752068,1663.13
1575319841.2835252,1646.27
1575319841.295798,1627.21
1575319841.305205,1603.34
1575319841.3122501,1585.67
1575319841.321764,1577.03
1575319841.332669,1570.09
1575319841.3407202,1563.3
1575319841.3490958,1556.42
1575319841.361143,1546.36
1575319841.370398,1535.9
1575319841.377673,1528.49
1575319841.388353,1522.22
1575319841.398321,1519.56
1575319841.406815,1520.0
1575319841.414774,1523.33
1575319841.426741,1527.87
1575319841.4376478,1531.34
1575319841.4433641,1535.8
1575319841.451766,1542.18
1575319841.463744,1549.6
1575319841.472422,1552.99
1575319841.480329,1551.18
1575319841.4925702,1543.04
1575319841.500829,1534.52
1575319841.5087008,1525.76
1575319841.5173178,1520.91
1575319841.529424,1516.45
1575319841.538146,1501.11
1575319841.545689,1467.0
1575319841.557735,1425.63
1575319841.566289,1360.76
1575319841.574185,1289.29
1575319841.5828621,1231.45
1575319841.594711,1159.88
1575319841.603774,1089.07
1575319841.6112509,1033.62
1575319841.622656,966.85
1575319841.627498,916.17
1575319841.635751,869.2
1575319841.643897,817.3
1575319841.652131,781.43
1575319841.660393,749.52
1575319841.672456,721.38
1575319841.6808178,696.73
1575319841.689454,676.35
1575319841.697383,658.31
1575319841.705663,650.2
1575319841.7135801,646.57
1575319841.722357,645.18
1575319841.7301,645.61
1575319841.738705,647.93
1575319841.746492,652.98
1575319841.755154,663.77
1575319841.7629209,676.12
1575319841.771641,690.93
1575319841.779019,706.61
1575319841.787977,722.11
1575319841.7956328,736.13
1575319841.8050702,747.6
1575319841.8119318,748.97
1575319841.820692,742.79
1575319841.828885,731.27
1575319841.8390222,717.46
1575319841.844747,704.59
1575319841.854205,692.5
1575319841.8609002,686.67
1575319841.8707242,684.19
1575319841.8774788,684.74
1575319841.888526,687.04
1575319841.893806,689.99
1575319841.902977,693.71
1575319841.910261,697.18
1575319841.91838,702.12
1575319841.9306712,709.59
1575319841.9393122,719.53
1575319841.9471512,731.41
1575319841.9556081,743.52
1575319841.963572,758.81
1575319841.9721842,770.87
1575319841.979912,782.65
1575319841.9884229,793.64
1575319841.996256,803.55
1575319842.0051908,812.35
1575319842.012662,822.89
1575319842.0216231,831.6
1575319842.0290601,839.93
1575319842.0377889,846.89
1575319842.045378,852.38
1575319842.054111,857.03
1575319842.0619159,864.15
1575319842.071052,871.69
1575319842.078219,880.36
1575319842.0871081,889.88
1575319842.094767,899.68
1575319842.103401,909.59
1575319842.110804,922.12
1575319842.119851,932.45
1575319842.1273549,942.98
1575319842.1356149,953.86
1575319842.1435132,965.14
1575319842.155496,975.96
1575319842.1599932,985.3
1575319842.1708312,993.82
1575319842.176354,998.68
1575319842.189138,1002.9
1575319842.197058,1008.55
1575319842.205612,1013.39
1575319842.217528,1019.46
1575319842.2254238,1026.18
1575319842.23394,1032.77
1575319842.241846,1042.18
1575319842.254679,1051.87
1575319842.2625768,1059.35
1575319842.2714748,1068.34
1575319842.283039,1076.05
1575319842.291008,1081.71
1575319842.2995179,1089.25
1575319842.3073668,1097.39
1575319842.321173,1103.61
1575319842.327947,1110.71
1575319842.33899,1118.41
1575319842.348331,1127.41
1575319842.356543,1134.8
1575319842.364817,1143.37
1575319842.3732438,1150.17
1575319842.387095,1153.98
1575319842.393596,1156.98
1575319842.4020312,1159.21
1575319842.414038,1161.61
1575319842.422506,1166.98
1575319842.430557,1175.47
1575319842.439301,1182.99
1575319842.451027,1191.04
1575319842.458868,1197.42
1575319842.467655,1202.56
1575319842.4793768,1211.09
1575319842.488193,1221.42
1575319842.495789,1229.8
1575319842.5047219,1237.88
1575319842.516374,1239.67
1575319842.52444,1238.83
1575319842.5331478,1248.54
1575319842.544967,1287.44
1575319842.553907,1344.56
1575319842.561602,1443.52
1575319842.5718741,1561.36
1575319842.581972,1686.59
1575319842.589945,1786.94
1575319842.5984719,1908.74
1575319842.610633,2020.88
1575319842.619083,2098.64
1575319842.6270149,2176.42
1575319842.636977,2231.08
1575319842.64774,2259.64
1575319842.6562219,2281.44
1575319842.6639302,2294.06
1575319842.676182,2300.83
1575319842.684662,2306.51
1575319842.692737,2308.03
1575319842.701028,2305.69
1575319842.713124,2299.93
1575319842.721834,2293.7
1575319842.729564,2289.14
1575319842.74157,2283.78
1575319842.749911,2276.2
1575319842.75823,2267.18
1575319842.7664058,2252.39
1575319842.7786539,2236.47
1575319842.787294,2227.63
1575319842.795097,2226.54
1575319842.8073049,2234.6
1575319842.815577,2243.82
1575319842.8238761,2246.77
1575319842.832093,2244.08
1575319842.843911,2236.43
1575319842.8522618,2228.73
1575319842.860338,2218.41
1575319842.873065,2206.02
1575319842.880897,2194.28
1575319842.8895192,2179.24
1575319842.897543,2164.66
1575319842.9095092,2152.58
1575319842.9211268,2137.54
1575319842.92589,2123.98
1575319842.93899,2114.32
1575319842.946497,2102.87
1575319842.955161,2092.14
1575319842.96305,2083.98
1575319842.975032,2074.49
1575319842.983448,2065.01
1575319842.9916759,2056.77
1575319843.005323,2044.83
1575319843.012158,2030.68
1575319843.0211751,2017.53
1575319843.0285492,1999.55
1575319843.040813,1980.99
1575319843.0490701,1960.87
1575319843.056997,1942.52
1575319843.071187,1917.72
1575319843.07762,1893.81
1575319843.0876858,1877.12
1575319843.0941079,1858.96
1575319843.10669,1843.84
1575319843.114602,1835.26
1575319843.123484,1829.73
1575319843.135038,1828.01
1575319843.1429539,1827.09
1575319843.151472,1825.26
1575319843.159402,1821.72
1575319843.172398,1816.75
1575319843.180021,1808.24
1575319843.188641,1798.74
1575319843.200618,1792.3
1575319843.2086651,1787.04
1575319843.216834,1782.62
1575319843.224908,1778.69
1575319843.237823,1773.63
1575319843.245641,1767.46
1575319843.254766,1760.9
1575319843.2663062,1750.25
1575319843.274095,1739.01
1575319843.282662,1728.77
1575319843.291072,1722.81
1575319843.304616,1721.09
1575319843.311145,1725.6
1575319843.321667,1731.71
1575319843.331444,1740.43
1575319843.339752,1748.06
1575319843.3480792,1752.28
1575319843.35695,1753.66
1575319843.3717701,1750.05
1575319843.376405,1744.1
1575319843.389624,1733.47
1575319843.3970702,1720.57
1575319843.4058619,1709.33
1575319843.413493,1697.02
1575319843.4221828,1692.02
1575319843.437196,1693.48
1575319843.44346,1695.17
1575319843.450371,1689.35
1575319843.462417,1679.17
1575319843.474217,1666.34
1575319843.4790552,1660.55
1575319843.487919,1660.07
1575319843.499905,1658.56
1575319843.50754,1653.96
1575319843.515798,1649.81
1575319843.528061,1649.41
1575319843.536421,1653.27
1575319843.5444522,1659.78
1575319843.552785,1665.18
1575319843.5648692,1670.81
1575319843.573578,1673.14
1575319843.581308,1671.31
1575319843.593565,1664.66
1575319843.60193,1657.76
1575319843.610226,1654.85
1575319843.618478,1654.1
1575319843.630463,1653.34
1575319843.639323,1651.03
1575319843.646711,1645.78
1575319843.659252,1637.73
1575319843.6676722,1629.85
1575319843.676239,1620.43
1575319843.683716,1613.17
1575319843.6960058,1607.94
1575319843.7041888,1600.42
1575319843.712267,1591.0
1575319843.7249,1582.41
1575319843.732828,1571.59
1575319843.741506,1561.78
1575319843.7492301,1552.82
1575319843.761514,1546.02
1575319843.7697291,1539.73
1575319843.777877,1537.66
1575319843.790379,1539.12
1575319843.7983072,1543.66
1575319843.807241,1547.01
1575319843.814956,1544.81
1575319843.8272781,1529.65
1575319843.839625,1495.92
1575319843.843393,1454.88
1575319843.8566039,1389.68
1575319843.863903,1316.01
1575319843.8740292,1256.43
1575319843.880417,1185.6
1575319843.8926752,1119.47
1575319843.9008179,1069.42
1575319843.909051,1010.11
1575319843.917341,953.83
1575319843.9256058,911.51
1575319843.933516,874.15
1575319843.9420621,844.18
1575319843.9499378,822.45
1575319843.959171,805.98
1575319843.966348,799.01
1575319843.974833,795.12
1575319843.986887,793.42
1575319843.995025,793.85
1575319844.003207,796.89
1575319844.011379,803.32
1575319844.019582,809.62
1575319844.0278149,815.9
1575319844.0360498,821.68
1575319844.044093,825.23
1575319844.053528,823.37
1575319844.060748,814.25
1575319844.068842,792.77
1575319844.076979,771.25
1575319844.089777,750.48
1575319844.093366,734.11
1575319844.1015759,724.05
1575319844.109688,720.41
1575319844.117901,721.89
1575319844.126143,725.54
1575319844.1343842,729.75
1575319844.142414,734.08
1575319844.150754,738.2
1575319844.158804,742.96
1575319844.167159,751.17
1575319844.175515,759.71
1575319844.183625,768.97
1575319844.191817,778.36
1575319844.199718,787.87
1575319844.208357,797.83
1575319844.21611,811.27
1575319844.2248802,822.3
1575319844.232595,833.88
1575319844.244836,846.27
1575319844.253076,859.63
1575319844.261239,873.36
1575319844.269546,886.56
1575319844.277644,900.75
1575319844.285834,910.38
1575319844.2939699,919.76
1575319844.305557,929.43
1575319844.310288,938.41
1575319844.318659,944.46
1575319844.326945,946.04
1575319844.336145,942.67
1575319844.343286,937.9
1575319844.351288,934.82
1575319844.359584,935.32
1575319844.367855,938.56
1575319844.3763998,943.48
1575319844.38428,947.03
1575319844.392404,950.35
1575319844.400639,954.41
1575319844.408779,959.83
1575319844.417038,966.88
1575319844.4251149,978.66
1575319844.4331222,989.9
1575319844.445599,1001.82
1575319844.4537542,1016.7
1575319844.4619179,1028.21
1575319844.470433,1041.55
1575319844.482256,1053.25
1575319844.4905732,1061.48
1575319844.499108,1071.95
1575319844.511134,1083.19
1575319844.522528,1090.3
1575319844.527447,1092.2
1575319844.537803,1083.39
1575319844.547887,1069.91
1575319844.556553,1049.87
1575319844.564296,1032.12
1575319844.5766451,1022.68
1575319844.58478,1017.67
1575319844.593083,1018.66
1575319844.601301,1022.11
1575319844.6134999,1027.84
1575319844.6229398,1034.88
1575319844.6298728,1041.51
1575319844.642217,1051.67
1575319844.6503942,1063.23
1575319844.6585312,1072.07
1575319844.66724,1080.81
1575319844.679012,1085.9
1575319844.6889348,1089.18
1575319844.6953778,1091.88
1575319844.707871,1096.32
1575319844.715826,1100.56
1575319844.724524,1102.55
1575319844.73224,1103.32
1575319844.744707,1104.78
1575319844.752851,1108.77
1575319844.760951,1118.5
1575319844.773629,1132.02
1575319844.781284,1143.29
1575319844.790198,1156.22
1575319844.797771,1167.61
1575319844.810345,1174.9
1575319844.818248,1180.02
1575319844.8265548,1183.84
1575319844.842487,1192.78
1575319844.846857,1219.9
1575319844.856525,1269.81
1575319844.863316,1326.28
1575319844.8761432,1412.75
1575319844.883907,1511.74
1575319844.89238,1597.28
1575319844.900274,1709.99
1575319844.9125812,1825.89
1575319844.9208682,1938.14
1575319844.928873,2019.67
1575319844.941488,2103.95
1575319844.949381,2167.31
1575319844.957599,2204.83
1575319844.965782,2239.54
1575319844.9783309,2264.84
1575319844.9864151,2280.14
1575319844.9946508,2293.92
1575319845.006824,2301.56
1575319845.0152059,2303.69
1575319845.02445,2301.82
1575319845.031446,2296.59
1575319845.043707,2291.49
1575319845.052097,2283.74
1575319845.0600598,2274.35
1575319845.073032,2268.55
1575319845.080592,2269.71
1575319845.0891461,2283.99
1575319845.0970829,2303.57
1575319845.109051,2330.94
1575319845.117599,2353.18
1575319845.1254761,2364.41
1575319845.138381,2370.17
1575319845.1461918,2369.13
1575319845.15478,2363.09
1575319845.162482,2356.46
1575319845.174569,2348.22
1575319845.1831732,2340.6
1575319845.190999,2334.61
1575319845.204608,2327.52
1575319845.2117069,2319.64
1575319845.220608,2311.82
1575319845.2281952,2299.4
1575319845.2401652,2284.41
1575319845.248683,2271.78
1575319845.257291,2255.53
1575319845.269156,2238.37
1575319845.2771971,2223.92
1575319845.285347,2205.17
1575319845.293608,2184.65
1575319845.3062751,2167.31
1575319845.314039,2146.82
1575319845.322516,2129.76
1575319845.337056,2118.79
1575319845.342568,2106.06
1575319845.3510988,2092.57
1575319845.359065,2081.03
1575319845.3723478,2067.21
1575319845.379423,2055.61
1575319845.388572,2046.75
1575319845.399945,2041.39
1575319845.408139,2035.45
1575319845.41659,2029.2
1575319845.4244852,2023.71
1575319845.43794,2015.5
1575319845.4450939,2005.18
1575319845.455279,1996.04
1575319845.46558,1985.34
1575319845.473585,1976.45
1575319845.482152,1970.85
1575319845.490984,1963.76
1575319845.504761,1954.35
1575319845.510664,1945.38
1575319845.5216808,1934.47
1575319845.5312471,1926.18
1575319845.540051,1920.84
1575319845.547555,1914.26
1575319845.556111,1906.79
1575319845.568212,1900.29
1575319845.5762188,1892.48
1575319845.584625,1884.31
1575319845.596614,1877.42
1575319845.60546,1868.79
1575319845.61317,1859.72
1575319845.622127,1849.72
1575319845.633613,1841.04
1575319845.641563,1830.5
1575319845.649895,1821.24
1575319845.662056,1815.4
1575319845.671052,1809.97
1575319845.67874,1805.73
1575319845.6874418,1802.64
1575319845.699244,1797.81
1575319845.70736,1791.7
1575319845.715617,1787.01
1575319845.727574,1783.63
1575319845.736078,1783.29
1575319845.744021,1784.31
1575319845.75515,1785.41
1575319845.7647371,1784.44
1575319845.77353,1781.69
1575319845.781132,1776.89
1575319845.793261,1772.55
1575319845.801688,1769.12
1575319845.809708,1764.13
1575319845.81823,1757.05
1575319845.830135,1750.26
1575319845.8400698,1740.87
1575319845.8463712,1731.97
1575319845.858619,1725.14
1575319845.8670862,1721.09
1575319845.875076,1717.59
1575319845.883532,1715.14
1575319845.895665,1713.1
1575319845.905524,1708.82
1575319845.912101,1701.24
1575319845.9241679,1692.92
1575319845.932826,1681.99
1575319845.9407208,1672.99
1575319845.9490921,1667.76
1575319845.9612339,1662.98
1575319845.9725661,1657.91
1575319845.977477,1652.76
1575319845.989936,1645.7
1575319845.99824,1639.21
1575319846.0070028,1635.35
1575319846.014561,1632.8
1575319846.0266619,1632.0
1575319846.0393941,1631.55
1575319846.043023,1630.55
1575319846.056017,1629.04
1575319846.0637178,1627.59
1575319846.072106,1626.4
1575319846.080069,1626.15
1575319846.092185,1625.58
1575319846.101009,1623.8
1575319846.108674,1619.56
1575319846.1213372,1613.19
1575319846.129178,1607.77
1575319846.138226,1601.61
1575319846.145679,1596.4
1575319846.157635,1592.46
1575319846.166309,1586.78
1575319846.17517,1581.09
1575319846.18691,1578.2
1575319846.19488,1577.32
1575319846.2034078,1578.73
1575319846.211209,1580.42
1575319846.223418,1581.21
1575319846.2314,1579.48
1575319846.240067,1576.93
1575319846.252715,1573.47
1575319846.260195,1571.69
1575319846.273259,1572.15
1575319846.2765372,1572.85
1575319846.2894158,1566.04
1575319846.2972999,1547.87
1575319846.3063529,1502.05
1575319846.317685,1432.2
1575319846.325654,1347.19
1575319846.334583,1275.62
1575319846.3420238,1188.58
1575319846.3558521,1108.2
1575319846.3624551,1049.11
1575319846.3718169,980.34
1575319846.3789508,928.68
1575319846.3886988,879.5
1575319846.395424,832.92
1575319846.405094,779.1
1575319846.4118311,739.9
1575319846.421193,704.99
1575319846.428287,675.27
1575319846.436571,652.25
1575319846.444603,636.37
1575319846.4528089,626.19
1575319846.460994,624.62
1575319846.469686,627.55
1575319846.477343,634.0
1575319846.486624,643.32
1575319846.497988,654.64
1575319846.506815,666.36
1575319846.514169,679.43
1575319846.52262,687.85
1575319846.530689,695.18
1575319846.539341,702.73
1575319846.547006,711.63
1575319846.555594,721.89
1575319846.563461,735.52
1575319846.571948,744.29
1575319846.579797,748.4
1575319846.588479,746.03
1575319846.596121,737.66
1575319846.60538,725.24
1575319846.612531,708.51
1575319846.621456,697.32
1575319846.628992,690.0
1575319846.637543,687.02
1575319846.645379,687.42
1575319846.6542249,689.8
1575319846.661707,694.66
1575319846.67042,700.11
1575319846.678186,707.07
1575319846.68942,715.95
1575319846.694336,727.48
1575319846.70334,741.12
1575319846.710832,755.2
1575319846.7193222,770.9
1575319846.7272,780.74
1575319846.737479,788.48
1575319846.7436101,795.37
1575319846.752071,802.19
1575319846.7640262,810.09
1575319846.772705,822.12
1575319846.78058,832.58
1575319846.7890198,842.51
1575319846.796921,851.69
1575319846.8055859,860.17
1575319846.813196,868.07
1575319846.822005,876.41
1575319846.829634,882.04
1575319846.8386471,887.47
1575319846.845802,892.76
1575319846.8546119,897.7
1575319846.8622022,901.92
1575319846.872144,905.94
1575319846.878595,909.12
1575319846.8878,913.7
1575319846.895075,921.21
1575319846.904198,931.87
1575319846.911637,944.02
1575319846.92106,955.43
1575319846.927948,967.69
1575319846.937771,976.43
1575319846.944423,984.85
1575319846.952428,992.88
1575319846.9647481,1000.42
1575319846.973474,1010.5
1575319846.981226,1021.87
1575319846.989389,1031.06
1575319847.001994,1041.25
1575319847.0096471,1049.69
1575319847.0181499,1056.09
1575319847.030144,1065.15
1575319847.039487,1075.53
1575319847.046537,1084.18
1575319847.056107,1094.46
1575319847.067173,1104.29
1575319847.075209,1112.66
1575319847.083513,1123.76
1575319847.095673,1133.06
1575319847.104736,1137.61
1575319847.112056,1145.4
1575319847.12114,1168.37
1575319847.13257,1218.29
1575319847.140762,1280.7
1575319847.148976,1382.63
1575319847.1611478,1500.84
1575319847.173612,1600.32
1575319847.177672,1725.57
1575319847.188829,1849.53
1575319847.198106,1944.88
1575319847.207472,2051.58
1575319847.21451,2137.96
1575319847.227502,2190.56
1575319847.237865,2236.53
1575319847.2431738,2264.53
1575319847.255153,2277.06
1575319847.263807,2283.6
1575319847.27294,2283.49
1575319847.2800589,2281.0
1575319847.292278,2276.99
1575319847.300618,2272.59
1575319847.3102021,2269.16
1575319847.316889,2264.48
1575319847.3296099,2259.05
1575319847.343056,2253.65
1575319847.345875,2245.2
1575319847.360686,2234.63
1575319847.366122,2221.53
1575319847.376487,2209.58
1575319847.382429,2193.92
1575319847.3952541,2179.33
1575319847.4029381,2169.95
1575319847.412232,2161.57
1575319847.4257889,2155.48
1575319847.431657,2150.92
1575319847.442752,2144.27
1575319847.448268,2134.16
1575319847.461015,2123.75
1575319847.468621,2113.79
1575319847.477188,2115.23
1575319847.489034,2126.63
1575319847.497227,2148.11
1575319847.507615,2167.54
1575319847.513574,2176.59
1575319847.526439,2178.78
1575319847.534657,2173.73
1575319847.543069,2166.52
1575319847.555409,2154.76
1575319847.562596,2141.76
1575319847.573318,2131.65
1575319847.5790641,2119.82
1575319847.5915918,2107.89
1575319847.5994592,2095.08
1575319847.6080241,2084.8
1575319847.621428,2073.46
1575319847.6281338,2064.68
1575319847.63641,2058.61
1575319847.644717,2050.4
1575319847.6575959,2039.99
1575319847.665028,2030.19
1575319847.674183,2018.04
1575319847.692136,2008.0
1575319847.694252,2001.5
1575319847.701959,1993.47
1575319847.710517,1984.19
1575319847.725746,1975.56
1575319847.73079,1963.65
1575319847.743016,1950.8
1575319847.760687,1940.13
1575319847.76125,1927.96
1575319847.776994,1920.12
1575319847.778133,1919.27
1575319847.796272,1923.47
1575319847.797271,1928.14
1575319847.810902,1929.36
1575319847.827793,1927.25
1575319847.828871,1922.72
1575319847.8333702,1917.77
1575319847.842165,1914.43
1575319847.8619661,1910.46
1575319847.8649302,1905.65
1575319847.8708448,1900.48
1575319847.895518,1891.79
1575319847.89604,1879.22
1575319847.8985379,1866.6
1575319847.909533,1850.5
1575319847.9189708,1838.36
1575319847.9277492,1833.55
1575319847.935411,1833.32
1575319847.948338,1835.54
1575319847.956465,1835.74
1575319847.9642491,1833.1
1575319847.972568,1829.07
1575319847.984833,1826.55
1575319847.9930198,1825.54
1575319848.002378,1826.34
1575319848.013173,1826.99
1575319848.0228639,1826.0
1575319848.0297668,1821.49
1575319848.038589,1814.79
1575319848.0502179,1804.29
1575319848.0582678,1794.0
1575319848.06989,1785.49
1575319848.078773,1779.92
1575319848.088133,1773.5
1575319848.095194,1766.98
1575319848.1035478,1761.09
1575319848.115743,1753.11
1575319848.124005,1745.44
1575319848.131948,1739.6
1575319848.140836,1732.35
1575319848.152589,1725.33
1575319848.160661,1719.66
1575319848.169086,1712.68
1575319848.1811771,1706.62
1575319848.190038,1702.98
1575319848.197524,1700.26
1575319848.206115,1699.07
1575319848.2179809,1698.24
1575319848.226358,1696.65
1575319848.234684,1693.42
1575319848.246689,1689.6
1575319848.25564,1684.47
1575319848.263059,1680.74
1575319848.272318,1679.55
1575319848.283733,1679.63
1575319848.2919319,1679.86
1575319848.299873,1677.82
1575319848.312253,1673.96
1575319848.3207622,1667.16
1575319848.328955,1659.58
1575319848.338349,1654.41
1575319848.3491971,1650.45
1575319848.358709,1649.43
1575319848.365419,1648.96
1575319848.3776672,1645.61
1575319848.386663,1638.35
1575319848.394444,1631.16
1575319848.40255,1623.76
1575319848.414578,1620.68
1575319848.423685,1620.78
1575319848.4310248,1621.86
1575319848.443254,1621.11
1575319848.451701,1618.23
1575319848.45972,1611.8
1575319848.467968,1603.16
1575319848.4801521,1596.54
1575319848.489334,1590.91
1575319848.496544,1588.49
1575319848.508857,1586.92
1575319848.517053,1584.12
1575319848.525375,1581.06
1575319848.533408,1578.74
1575319848.545763,1577.23
1575319848.557098,1575.19
1575319848.5621262,1573.46
1575319848.574771,1573.27
1575319848.582604,1572.71
1575319848.59123,1563.27
1575319848.598884,1541.68
1575319848.611433,1493.0
1575319848.621342,1422.57
1575319848.6280088,1355.51
1575319848.640411,1265.22
1575319848.6481678,1174.7
1575319848.657202,1104.88
1575319848.6644769,1021.13
1575319848.676758,941.14
1575319848.68494,880.2
1575319848.693461,822.36
1575319848.7013419,768.31
1575319848.709495,718.72
1575319848.7202518,663.9
1575319848.726348,626.1
1575319848.734242,593.17
1575319848.742763,564.82
1575319848.75069,540.77
1575319848.758794,520.64
1575319848.7668328,504.74
1575319848.775103,490.4
1575319848.7832,483.56
1575319848.791447,480.93
1575319848.799993,482.11
1575319848.807821,486.57
1575319848.81633,493.95
1575319848.824237,505.22
1575319848.832671,514.33
1575319848.8406432,522.84
1575319848.849133,530.38
1575319848.857575,536.81
1575319848.865503,542.02
1575319848.874633,548.39
1575319848.8815858,554.98
1575319848.890176,564.31
1575319848.897913,576.66
1575319848.906828,590.88
1575319848.9145448,605.3
1575319848.923622,622.19
1575319848.930775,634.93
1575319848.943063,647.97
1575319848.9524128,662.32
1575319848.9596422,677.93
1575319848.967835,694.35
1575319848.97577,711.31
1575319848.984164,732.75
1575319848.992557,748.61
1575319849.000418,761.14
1575319849.009137,769.49
1575319849.016686,773.42
1575319849.025491,773.99
1575319849.0332952,772.26
1575319849.041594,771.13
1575319849.049385,771.98
1575319849.058184,775.59
1575319849.065857,781.45
1575319849.074338,788.91
1575319849.082242,798.89
1575319849.090785,807.29
1575319849.098804,816.86
1575319849.1073751,828.5
1575319849.1149921,843.04
1575319849.1234539,860.15
1575319849.1317818,882.48
1575319849.139987,899.17
1575319849.1480541,913.49
1575319849.1566248,925.1
1575319849.164187,934.93
1575319849.17295,944.23
1575319849.180557,953.7
1575319849.189635,966.54
1575319849.196915,977.47
1575319849.209311,988.44
1575319849.2200918,999.35
1575319849.226005,1010.46
1575319849.233862,1024.12
1575319849.242131,1035.71
1575319849.254974,1042.14
1575319849.2628329,1046.52
1575319849.2713878,1048.35
1575319849.283236,1048.93
1575319849.291866,1049.82
1575319849.2993479,1053.15
1575319849.308349,1058.56
1575319849.3199492,1067.79
1575319849.3283122,1077.51
1575319849.336339,1083.71
1575319849.348753,1088.83
1575319849.358581,1093.65
1575319849.364869,1099.96
1575319849.373461,1112.41
1575319849.385605,1128.28
1575319849.393901,1145.36
1575319849.401742,1159.36
1575319849.414186,1176.79
1575319849.422981,1194.24
1575319849.430444,1208.24
1575319849.439473,1225.08
1575319849.450894,1239.86
1575319849.459248,1248.83
1575319849.467478,1253.02
1575319849.479553,1247.43
1575319849.488513,1241.04
1575319849.495927,1246.85
1575319849.505631,1284.48
1575319849.516573,1341.87
1575319849.525103,1444.34
1575319849.532753,1569.83
1575319849.545108,1677.81
1575319849.556001,1814.27
1575319849.5614889,1946.37
1575319849.569964,2044.27
1575319849.581974,2150.53
1575319849.590623,2234.17
1575319849.598418,2284.89
1575319849.610753,2332.0
1575319849.619008,2365.31
1575319849.627095,2386.8
1575319849.635372,2395.97
1575319849.647577,2397.93
1575319849.6566348,2392.2
1575319849.663949,2385.14
1575319849.676339,2374.89
1575319849.684484,2365.64
1575319849.692754,2359.36
1575319849.7056,2350.94
1575319849.71337,2339.31
1575319849.7217228,2328.01
1575319849.729603,2317.28
1575319849.7421482,2316.99
1575319849.750019,2324.52
1575319849.758661,2337.69
1575319849.766248,2348.07
1575319849.7785861,2352.37
1575319849.786962,2353.27
1575319849.7950459,2350.28
1575319849.807801,2345.24
1575319849.815475,2335.57
1575319849.8240771,2322.13
1575319849.831815,2309.27
1575319849.8442822,2291.95
1575319849.853211,2275.82
1575319849.8605871,2261.46
1575319849.874198,2251.02
1575319849.880945,2238.33
1575319849.889902,2226.47
1575319849.8974028,2217.74
1575319849.909745,2207.22
1575319849.918102,2195.78
1575319849.9264011,2185.16
1575319849.93938,2170.42
1575319849.9465442,2154.3
1575319849.9547698,2140.89
1575319849.9629078,2125.27
1575319849.9752278,2113.44
1575319849.9835231,2106.79
1575319849.991872,2099.37
1575319850.004101,2090.24
1575319850.012227,2081.82
1575319850.0203571,2071.52
1575319850.0285041,2062.72
1575319850.040938,2056.88
1575319850.048875,2049.78
1575319850.0581388,2042.41
1575319850.0695539,2036.07
1575319850.077661,2026.03
1575319850.085946,2013.53
1575319850.094526,1999.48
1575319850.1068459,1987.7
1575319850.1144462,1973.87
1575319850.124099,1962.75
1575319850.139508,1955.84
1575319850.14336,1947.74
1575319850.151412,1937.37
1575319850.159605,1926.59
1575319850.171981,1910.32
1575319850.180023,1893.99
1575319850.1892328,1883.13
1575319850.200555,1872.73
1575319850.208964,1865.35
1575319850.216813,1861.47
1575319850.225259,1858.81
1575319850.239737,1858.11
1575319850.245652,1857.75
1575319850.256097,1856.0
1575319850.2664168,1851.63
1575319850.274754,1847.58
1575319850.2824168,1844.41
1575319850.290943,1843.8
1575319850.3030899,1843.8
1575319850.3111382,1843.54
1575319850.3195982,1841.39
1575319850.33153,1836.06
1575319850.340292,1829.82
1575319850.348263,1821.24
1575319850.3590899,1813.13
1575319850.368452,1807.55
1575319850.37681,1801.42
1575319850.3852239,1795.47
1575319850.3973958,1791.34
1575319850.4059541,1788.14
1575319850.413706,1787.23
1575319850.422258,1787.33
1575319850.4342568,1786.47
1575319850.44241,1783.24
1575319850.4504478,1778.65
1575319850.462848,1770.62
1575319850.4716742,1761.12
1575319850.479222,1753.86
1575319850.4880052,1746.07
1575319850.499748,1739.52
1575319850.508054,1734.95
1575319850.5160162,1729.53
1575319850.5281558,1725.2
1575319850.53743,1721.38
1575319850.544807,1709.99
1575319850.553115,1681.85
1575319850.565273,1630.78
1575319850.573668,1574.6
1575319850.5817568,1491.02
1575319850.5937831,1400.31
1575319850.6022341,1326.47
1575319850.6102788,1235.61
1575319850.6186008,1147.05
1575319850.6308181,1078.64
1575319850.63965,998.41
1575319850.647035,939.39
1575319850.655932,885.26
1575319850.663591,836.26
1575319850.673066,782.47
1575319850.6800032,744.74
1575319850.690135,711.08
1575319850.696396,681.58
1575319850.704952,656.18
1575319850.712758,634.91
1575319850.721619,613.33
1575319850.729135,599.34
1575319850.738034,587.87
1575319850.745399,578.54
1575319850.754527,571.45
1575319850.761941,567.52
1575319850.7720692,569.06
1575319850.7780192,575.83
1575319850.787311,585.62
1575319850.794646,596.27
1575319850.802759,606.61
1575319850.810889,616.75
1575319850.819129,627.64
1575319850.827349,644.81
1575319850.840845,661.67
1575319850.843605,679.76
1575319850.856611,697.55
1575319850.86405,714.05
1575319850.873539,728.83
1575319850.880585,744.58
1575319850.889282,755.45
1575319850.897027,765.17
1575319850.905836,773.72
1575319850.913373,781.64
1575319850.922081,789.47
1575319850.929736,800.56
1575319850.938569,810.9
1575319850.946197,822.32
1575319850.954612,835.07
1575319850.962497,847.95
1575319850.971297,860.64
1575319850.9788768,874.76
1575319850.9890938,884.53
1575319850.995187,892.94
1575319851.005214,900.29
1575319851.011487,907.14
1575319851.021631,913.72
1575319851.027911,920.07
1575319851.036503,926.89
1575319851.0444841,931.47
1575319851.053351,935.54
1575319851.0607228,940.01
1575319851.072581,945.71
1575319851.077131,953.14
1575319851.0881238,964.71
1575319851.094573,975.28
1575319851.107113,986.81
1575319851.117478,998.51
1575319851.124321,1009.86
1575319851.13135,1022.75
1575319851.144137,1034.6
1575319851.159168,1043.22
1575319851.1603808,1052.94
1575319851.17613,1062.19
1575319851.176548,1069.56
1575319851.1897962,1078.74
1575319851.196019,1087.52
1575319851.2065432,1093.92
1575319851.220892,1100.52
1575319851.22617,1105.62
1575319851.2418518,1108.65
1575319851.242408,1112.27
1575319851.254026,1117.58
1575319851.2614489,1124.2
1575319851.2720718,1134.4
1575319851.282032,1143.96
1575319851.2901802,1149.44
1575319851.298412,1152.63
1575319851.30672,1153.03
1575319851.318812,1151.6
1575319851.3272698,1149.49
1575319851.335253,1147.46
1575319851.3474119,1148.04
1575319851.356087,1151.19
1575319851.363765,1157.53
1575319851.372725,1165.82
1575319851.384695,1173.63
1575319851.392514,1183.96
1575319851.4011588,1193.13
1575319851.4129229,1199.5
1575319851.424159,1207.41
1575319851.429431,1215.96
1575319851.4380648,1223.47
1575319851.449839,1232.95
1575319851.4581199,1239.8
1575319851.4662888,1241.3
1575319851.478422,1241.13
1575319851.488789,1251.5
1575319851.4948711,1277.45
1575319851.5045178,1338.86
1575319851.5152981,1430.44
1575319851.523542,1518.29
1575319851.531852,1636.0
1575319851.543943,1753.37
1575319851.5528672,1864.28
1575319851.56036,1945.67
1575319851.568919,2036.7
1575319851.5807629,2115.43
1575319851.590132,2171.05
1575319851.597193,2233.63
1575319851.609496,2291.04
1575319851.61829,2332.09
1575319851.6260018,2372.7
1575319851.634311,2398.2
1575319851.646419,2408.01
1575319851.655763,2409.43
1575319851.662862,2402.17
1575319851.675064,2393.22
1575319851.6833558,2381.59
1575319851.691556,2370.95
1575319851.700205,2362.55
1575319851.712081,2352.0
1575319851.7220428,2341.22
1575319851.7285042,2332.29
1575319851.740603,2320.31
1575319851.7490711,2307.36
1575319851.757469,2296.84
1575319851.765532,2284.84
1575319851.777448,2274.35
1575319851.78581,2263.89
1575319851.794091,2253.47
1575319851.806975,2237.66
1575319851.814547,2224.41
1575319851.823125,2220.0
1575319851.831088,2221.41
1575319851.8431098,2224.4
1575319851.853128,2224.28
1575319851.8594298,2219.79
1575319851.872285,2212.18
1575319851.880149,2205.5
1575319851.888853,2196.98
1575319851.8966131,2188.04
1575319851.908556,2179.95
1575319851.9170601,2169.65
1575319851.924917,2160.5
1575319851.9391649,2153.62
1575319851.945473,2144.79
1575319851.954398,2134.55
1575319851.96207,2124.96
1575319851.974043,2112.23
1575319851.982634,2100.63
1575319851.9909482,2093.06
1575319852.003053,2084.47
1575319852.010956,2072.81
1575319852.019593,2055.05
1575319852.027363,2036.91
1575319852.0402591,2011.83
1575319852.048034,1988.18
1575319852.056941,1972.61
1575319852.068622,1957.91
1575319852.0766442,1946.64
1575319852.084985,1938.69
1575319852.092879,1929.56
1575319852.1059132,1921.72
1575319852.1136022,1916.46
1575319852.122167,1909.94
1575319852.1339898,1901.54
1575319852.14215,1892.89
1575319852.150458,1881.08
1575319852.158509,1870.76
1575319852.171445,1864.36
1575319852.179109,1857.37
1575319852.1878872,1849.59
1575319852.1997252,1842.48
1575319852.207605,1832.56
1575319852.2160902,1822.76
1575319852.224745,1816.1
1575319852.236434,1808.52
1575319852.2446258,1796.6
1575319852.2527611,1771.19
1575319852.2652678,1735.95
1575319852.2740638,1671.38
1575319852.2815201,1588.01
1575319852.290028,1513.7
1575319852.302041,1417.85
1575319852.310112,1325.53
1575319852.318469,1257.58
1575319852.330476,1180.81
1575319852.3393931,1112.27
1575319852.347104,1061.72
1575319852.356212,1002.08
1575319852.363652,945.27
1575319852.372216,902.8
1575319852.3838131,865.43
1575319852.391872,835.35
1575319852.40039,813.11
1575319852.408541,798.5
1575319852.4167721,790.05
1575319852.4246132,789.03
1575319852.433218,790.72
1575319852.441528,793.69
1575319852.449449,797.52
1575319852.457439,802.96
1575319852.465945,813.13
1575319852.474524,823.92
1575319852.482168,836.3
1575319852.490368,848.52
1575319852.498781,858.8
1575319852.507743,866.46
1575319852.514744,872.31
1575319852.523935,875.09
1575319852.531299,876.53
1575319852.540503,876.42
1575319852.54769,873.66
1575319852.556313,867.29
1575319852.56431,853.8
1575319852.573024,840.56
1575319852.580595,827.87
1575319852.58926,817.39
1575319852.596909,810.16
1575319852.605849,806.33
1575319852.613281,805.1
1575319852.621844,805.62
1575319852.629782,806.48
1575319852.641789,807.14
1575319852.650305,807.42
1575319852.658195,807.26
1575319852.6665752,806.92
1575319852.6745112,806.07
1575319852.683017,805.28
1575319852.690933,805.03
1575319852.699299,806.14
1575319852.707357,809.21
1575319852.715703,814.87
1575319852.723922,825.45
1575319852.732175,836.59
1575319852.741646,849.76
1575319852.7485461,864.8
1575319852.756901,881.64
1575319852.764979,899.05
1575319852.773348,919.65
1575319852.781271,933.47
1575319852.7897978,944.58
1575319852.797672,953.03
1575319852.806392,958.89
1575319852.814102,962.82
1575319852.8228989,965.96
1575319852.830421,970.4
1575319852.839044,975.47
1575319852.846821,981.88
1575319852.8555,989.52
1575319852.863277,998.72
1575319852.875197,1009.2
1575319852.883761,1022.59
1575319852.8916988,1035.82
1575319852.900335,1045.72
1575319852.912266,1056.68
1575319852.9212182,1066.82
1575319852.928682,1077.8
1575319852.941304,1088.95
1575319852.949284,1107.44
1575319852.957154,1129.96
1575319852.965634,1148.68
1575319852.9778152,1170.29
1575319852.9903219,1189.11
1575319852.9940789,1202.54
1575319853.007073,1217.3
1575319853.014556,1230.01
1575319853.023221,1238.65
1575319853.030968,1247.8
1575319853.0432599,1255.32
1575319853.0517278,1259.37
1575319853.0595589,1260.92
1575319853.0724611,1256.55
1575319853.0802891,1250.83
1575319853.088918,1252.45
1575319853.096708,1279.64
1575319853.1086762,1325.55
1575319853.117099,1409.98
1575319853.125126,1515.18
1575319853.138106,1606.73
1575319853.145838,1722.07
1575319853.154531,1830.42
1575319853.162165,1923.65
1575319853.1742551,1984.26
1575319853.182765,2042.89
1575319853.190934,2085.5
1575319853.2036638,2110.78
1575319853.211348,2134.1
1575319853.221157,2149.22
1575319853.227694,2156.29
1575319853.2403882,2160.36
1575319853.2481458,2161.35
1575319853.256475,2161.5
1575319853.272782,2159.99
1575319853.2766201,2155.77
1575319853.28513,2151.74
1575319853.293012,2150.75
1575319853.306157,2159.97
1575319853.313782,2175.15
1575319853.32254,2199.9
1575319853.334344,2224.51
1575319853.342217,2238.9
1575319853.350374,2247.54
1575319853.358664,2246.9
1575319853.372515,2242.07
1575319853.379308,2233.9
1575319853.387996,2224.56
1575319853.400021,2214.09
1575319853.4078631,2204.58
1575319853.4161458,2191.37
1575319853.424205,2178.2
1575319853.4383721,2168.53
1575319853.4447129,2157.68
1575319853.4538329,2148.7
1575319853.465464,2142.94
1575319853.473891,2136.95
1575319853.48173,2130.54
1575319853.490164,2123.7
1575319853.502291,2115.36
1575319853.510499,2112.31
1575319853.5185988,2116.02
1575319853.5306208,2126.25
1575319853.539989,2136.38
1575319853.5472279,2140.6
1575319853.555956,2140.25
1575319853.567861,2135.35
1575319853.5758028,2129.99
1575319853.5839329,2123.06
1575319853.596353,2116.91
1575319853.605097,2112.28
1575319853.612691,2106.47
1575319853.6217449,2101.09
1575319853.633335,2096.58
1575319853.6411798,2093.21
1575319853.6497211,2087.73
1575319853.661835,2080.36
1575319853.67088,2073.94
1575319853.6782122,2066.29
1575319853.6875288,2059.31
1575319853.698849,2053.03
1575319853.708395,2043.54
1575319853.715092,2032.32
1575319853.7273731,2022.43
1575319853.7402,2009.54
1575319853.743724,1997.03
1575319853.754719,1987.04
1575319853.764409,1973.02
1575319853.773182,1957.56
1575319853.780715,1946.38
1575319853.7926788,1935.66
1575319853.801294,1927.7
1575319853.809315,1921.6
1575319853.817514,1912.27
1575319853.829844,1900.9
1575319853.838607,1891.44
1575319853.846176,1881.34
1575319853.858227,1874.0
1575319853.866488,1866.47
1575319853.874763,1858.46
1575319853.882781,1846.45
1575319853.895114,1833.91
1575319853.905003,1825.03
1575319853.9117289,1815.2
1575319853.92392,1805.78
1575319853.9322822,1798.17
1575319853.940727,1789.55
1575319853.948689,1783.02
1575319853.9608462,1779.37
1575319853.969702,1775.77
1575319853.977142,1772.48
1575319853.989878,1769.67
1575319853.9978082,1765.16
1575319854.006646,1759.96
1575319854.013984,1756.23
1575319854.026183,1753.18
1575319854.034687,1751.67
1575319854.0426471,1751.66
1575319854.05536,1753.71
1575319854.063393,1755.19
1575319854.0752351,1749.79
1575319854.079415,1726.73
1575319854.0917828,1680.0
1575319854.10043,1610.17
1575319854.1081972,1541.98
1575319854.121577,1448.63
1575319854.1288111,1352.98
1575319854.1375911,1278.52
1575319854.145279,1191.62
1575319854.157363,1113.26
1575319854.165793,1056.73
1575319854.174432,992.88
1575319854.182204,947.07
1575319854.190846,905.81
1575319854.1985128,868.38
1575319854.2069561,825.25
1575319854.214968,792.69
1575319854.223688,761.92
1575319854.2313118,734.16
1575319854.239777,712.21
1575319854.2476711,697.44
1575319854.256303,688.4
1575319854.26413,686.38
1575319854.272862,686.78
1575319854.280442,688.84
1575319854.289104,692.97
1575319854.301051,699.96
1575319854.3089259,710.76
1575319854.317224,719.15
1575319854.3253021,726.73
1575319854.333793,734.49
1575319854.3416462,743.12
1575319854.349958,753.21
1575319854.3579378,765.3
1575319854.366961,783.58
1575319854.374905,800.62
1575319854.382598,818.01
1575319854.390791,834.66
1575319854.3992908,849.73
1575319854.407882,862.85
1575319854.415533,876.15
1575319854.4236171,885.25
1575319854.432042,893.51
1575319854.440491,900.66
1575319854.448416,906.56
1575319854.457,911.66
1575319854.464633,918.04
1575319854.473081,923.62
1575319854.480878,929.31
1575319854.490016,934.98
1575319854.4975832,940.65
1575319854.506297,945.82
1575319854.5136561,952.24
1575319854.5224051,956.96
1575319854.530102,960.81
1575319854.539427,963.51
1575319854.5466108,965.24
1575319854.5587049,968.34
1575319854.567329,975.13
1575319854.575236,990.53
1575319854.5836842,1006.54
1575319854.591443,1023.05
1575319854.599988,1041.38
1575319854.612114,1055.27
1575319854.6208682,1062.96
1575319854.628434,1065.21
1575319854.640584,1071.65
1575319854.649057,1097.34
1575319854.657451,1139.14
1575319854.665774,1217.18
1575319854.6775548,1314.5
1575319854.688681,1398.61
1575319854.6939452,1505.71
1575319854.70677,1612.48
1575319854.71463,1694.93
1575319854.723117,1787.07
1575319854.731113,1859.57
1575319854.743059,1901.49
1575319854.751442,1936.85
1575319854.759448,1960.02
1575319854.772497,1974.29
1575319854.780159,1989.95
1575319854.788919,2003.84
1575319854.79657,2012.79
1575319854.8085592,2020.21
1575319854.817309,2023.28
1575319854.825253,2023.82
1575319854.838155,2023.46
1575319854.845721,2022.82
1575319854.854953,2022.08
1575319854.862033,2020.83
1575319854.874293,2017.34
1575319854.88242,2011.35
1575319854.8906,2005.27
1575319854.903012,1997.65
1575319854.9111009,1991.1
1575319854.919392,1987.31
1575319854.927428,1983.74
1575319854.940196,1979.57
1575319854.948151,1974.74
1575319854.957654,1966.14
1575319854.968534,1956.14
1575319854.97656,1951.16
1575319854.985056,1954.93
1575319854.992883,1970.91
1575319855.0058439,1988.39
1575319855.013601,2009.5
1575319855.022808,2025.4
1575319855.0339682,2034.07
1575319855.0421288,2040.21
1575319855.0506182,2042.22
1575319855.0586638,2041.36
1575319855.071438,2037.83
1575319855.079191,2032.83
1575319855.0882208,2027.5
1575319855.0997992,2023.71
1575319855.108023,2019.53
1575319855.116065,2014.99
1575319855.1246889,2010.73
1575319855.13654,2003.93
1575319855.144456,1995.01
1575319855.1535292,1986.24
1575319855.165327,1974.6
1575319855.1736891,1964.63
1575319855.18152,1958.64
1575319855.190084,1952.39
1575319855.201988,1944.97
1575319855.209984,1936.47
1575319855.218766,1923.8
1575319855.230664,1914.1
1575319855.240463,1910.68
1575319855.246921,1910.3
1575319855.255698,1910.1
1575319855.267678,1908.35
1575319855.275668,1904.76
1575319855.283933,1901.48
1575319855.296124,1899.71
1575319855.304937,1897.43
1575319855.312604,1894.04
1575319855.321823,1889.14
1575319855.333202,1883.58
1575319855.3412108,1874.33
1575319855.349252,1863.18
1575319855.361693,1854.4
1575319855.373947,1845.4
1575319855.378011,1838.75
1575319855.387344,1833.55
1575319855.398699,1825.08
1575319855.407997,1814.57
1575319855.415075,1805.71
1575319855.427038,1795.45
1575319855.440602,1786.18
1575319855.443757,1779.16
1575319855.452381,1771.09
1575319855.4641201,1763.99
1575319855.4729862,1758.95
1575319855.4806788,1754.19
1575319855.492901,1753.13
1575319855.501021,1755.61
1575319855.509011,1761.54
1575319855.517372,1768.52
1575319855.529551,1773.23
1575319855.5387578,1776.92
1575319855.545862,1778.65
1575319855.558145,1779.39
1575319855.566785,1779.55
1575319855.575124,1775.36
1575319855.582975,1758.77
1575319855.595285,1731.76
1575319855.603497,1677.97
1575319855.611491,1604.22
1575319855.62371,1534.39
1575319855.6321988,1440.11
1575319855.640634,1344.67
1575319855.648672,1270.63
1575319855.660562,1183.37
1575319855.6698089,1104.41
1575319855.67717,1048.56
1575319855.685717,988.84
1575319855.693593,948.06
1575319855.701756,912.01
1575319855.7097468,872.3
1575319855.718871,844.38
1575319855.7261598,819.79
1575319855.7346199,799.18
1575319855.7424908,783.71
1575319855.755488,774.07
1575319855.7631721,770.74
1575319855.77177,773.95
1575319855.7795572,779.72
1575319855.788255,786.19
1575319855.795944,792.06
1575319855.804647,797.46
1575319855.812383,803.05
1575319855.821006,811.04
1575319855.828725,818.07
1575319855.8372061,825.08
1575319855.844842,832.16
1575319855.85413,839.78
1575319855.861425,848.23
1575319855.8721988,859.7
1575319855.87772,868.75
1575319855.8873222,876.97
1575319855.89422,884.72
1575319855.9023628,892.18
1575319855.9105332,899.6
1575319855.920293,908.35
1575319855.926858,913.66
1575319855.935292,915.26
1575319855.943199,911.54
1575319855.9518871,901.61
1575319855.959627,885.92
1575319855.9680262,866.62
1575319855.97599,841.88
1575319855.984449,824.95
1575319855.992314,812.49
1575319856.001292,805.0
1575319856.008766,801.82
1575319856.022061,802.21
1575319856.029214,805.06
1575319856.038667,807.93
1575319856.045567,810.68
1575319856.055115,813.83
1575319856.0621288,817.86
1575319856.070893,823.65
1575319856.078509,833.19
1575319856.088976,842.04
1575319856.094862,851.7
1575319856.103926,861.66
1575319856.111403,871.47
1575319856.119413,879.83
1575319856.1276748,888.08
1575319856.136157,893.26
1575319856.143873,898.69
1575319856.152242,905.71
1575319856.1603358,914.69
1575319856.1687522,925.51
1575319856.1768131,937.35
1575319856.185109,952.05
1575319856.192993,962.61
1575319856.201636,971.81
1575319856.209522,979.96
1575319856.217835,987.65
1575319856.225822,995.44
1575319856.238587,1006.8
1575319856.2465558,1017.18
1575319856.2549288,1030.61
1575319856.262898,1043.68
1575319856.2749481,1053.86
1575319856.283521,1065.74
1575319856.2913558,1076.13
1575319856.304823,1083.31
1575319856.312041,1090.78
1575319856.321174,1096.88
1575319856.328498,1100.83
1575319856.3405519,1105.51
1575319856.349077,1110.56
1575319856.357033,1114.6
1575319856.372716,1119.78
1575319856.3775098,1126.78
1575319856.386254,1134.46
1575319856.393863,1146.56
1575319856.406614,1160.73
1575319856.414559,1176.28
1575319856.423497,1188.49
1575319856.4351628,1200.14
1575319856.4429739,1206.78
1575319856.4542441,1213.83
1575319856.4593291,1236.66
1575319856.472385,1285.58
1575319856.479966,1345.62
1575319856.488721,1442.99
1575319856.500758,1557.1
1575319856.50849,1654.44
1575319856.517189,1776.07
1575319856.524829,1887.45
1575319856.538149,1962.39
1575319856.545299,2034.82
1575319856.5542982,2085.47
1575319856.566208,2114.01
1575319856.574364,2139.75
1575319856.5824928,2158.23
1575319856.59096,2169.22
1575319856.603366,2178.54
1575319856.611031,2183.74
1575319856.619167,2185.87
1575319856.6315148,2186.93
1575319856.640346,2185.48
1575319856.6478589,2180.4
1575319856.656097,2173.93
1575319856.6684978,2164.31
1575319856.6764412,2153.36
1575319856.684971,2143.62
1575319856.697029,2134.84
1575319856.705856,2137.72
1575319856.713474,2151.72
1575319856.7222452,2181.12
1575319856.73403,2213.86
1575319856.741952,2235.85
1575319856.7507358,2254.93
1575319856.762538,2265.56
1575319856.771195,2270.28
1575319856.7789938,2274.5
1575319856.7881112,2277.22
1575319856.799527,2276.78
1575319856.8079722,2271.71
1575319856.815867,2261.88
1575319856.827956,2251.93
1575319856.836483,2239.2
1575319856.844386,2227.44
1575319856.852642,2219.19
1575319856.865123,2209.43
1575319856.8739982,2198.64
1575319856.881688,2185.39
1575319856.89387,2172.43
1575319856.902051,2154.68
1575319856.909918,2137.96
1575319856.91831,2126.27
1575319856.930651,2113.68
1575319856.939324,2102.79
1575319856.946941,2094.4
1575319856.959,2082.94
1575319856.967442,2069.88
1575319856.975392,2059.23
1575319856.984245,2046.39
1575319856.9961221,2034.66
1575319857.005107,2026.5
1575319857.0124621,2018.15
1575319857.0250409,2011.29
1575319857.032853,2005.85
1575319857.045486,1997.11
1575319857.049262,1985.59
1575319857.061352,1975.08
1575319857.069785,1960.85
1575319857.0779939,1946.69
1575319857.090626,1936.23
1575319857.09847,1923.95
1575319857.1069598,1911.44
1575319857.115051,1901.02
1575319857.1269171,1896.02
1575319857.1355178,1892.88
1575319857.143476,1890.33
1575319857.15622,1887.66
1575319857.163999,1883.86
1575319857.1727018,1879.82
1575319857.1804879,1876.4
1575319857.192487,1871.72
1575319857.200982,1865.78
1575319857.2090292,1859.44
1575319857.22178,1850.14
1575319857.2295191,1841.22
1575319857.238486,1835.38
1575319857.245954,1829.8
1575319857.257963,1823.8
1575319857.26629,1817.18
1575319857.2743628,1805.52
1575319857.286819,1791.22
1575319857.294958,1779.77
1575319857.303512,1768.18
1575319857.3115551,1761.88
1575319857.324065,1761.58
1575319857.332026,1765.35
1575319857.340634,1769.06
1575319857.352171,1769.05
1575319857.360606,1766.2
1575319857.3689458,1761.59
1575319857.376867,1758.04
1575319857.389806,1756.24
1575319857.397333,1755.29
1575319857.406253,1755.15
1575319857.418189,1754.32
1575319857.426035,1750.4
1575319857.434612,1742.25
1575319857.442392,1733.61
1575319857.455418,1722.82
1575319857.462823,1714.04
1575319857.471872,1707.77
1575319857.483745,1695.43
1575319857.4914749,1669.42
1575319857.4999769,1634.44
1575319857.507877,1573.98
1575319857.520423,1500.62
1575319857.528456,1436.81
1575319857.5373251,1353.45
1575319857.548966,1266.6
1575319857.557837,1195.03
1575319857.565364,1104.81
1575319857.5734599,1017.18
1575319857.581943,937.55
1575319857.5909069,883.32
1575319857.602217,838.87
1575319857.610344,803.79
1575319857.61872,775.64
1575319857.626633,751.86
1575319857.635239,730.96
1575319857.643018,707.96
1575319857.651438,693.04
1575319857.659404,682.37
1575319857.6681442,676.46
1575319857.6758249,675.1
1575319857.6842,677.4
1575319857.692226,683.71
1575319857.700737,689.8
1575319857.70856,694.8
1575319857.717364,697.54
1575319857.725257,697.87
1575319857.7333398,697.15
1575319857.741355,696.94
1575319857.749894,698.85
1575319857.75793,703.18
1575319857.7662542,709.55
1575319857.77492,717.52
1575319857.782541,726.31
1575319857.790538,738.06
1575319857.7990599,748.43
1575319857.807712,760.13
1575319857.815277,773.06
1575319857.823895,786.29
1575319857.831808,798.83
1575319857.84075,809.97
1575319857.84807,821.8
1575319857.8567228,830.13
1575319857.868665,838.32
1575319857.8765519,846.83
1575319857.885323,855.93
1575319857.893357,865.36
1575319857.901431,877.2
1575319857.909285,886.27
1575319857.917923,894.68
1575319857.925676,902.51
1575319857.934089,910.43
1575319857.942063,919.06
1575319857.9507241,931.94
1575319857.958434,943.16
1575319857.966936,954.15
1575319857.9748669,964.29
1575319857.9833841,973.65
1575319857.992175,983.25
1575319857.999742,996.46
1575319858.007762,1006.46
1575319858.020127,1014.66
1575319858.028267,1024.01
1575319858.036499,1042.15
1575319858.044491,1071.86
1575319858.057795,1135.13
1575319858.065213,1227.03
1575319858.07383,1314.86
1575319858.0857558,1427.7
1575319858.0937479,1526.97
1575319858.102067,1588.82
1575319858.110025,1643.02
1575319858.122945,1677.96
1575319858.130771,1702.34
1575319858.1393018,1718.79
1575319858.151293,1739.21
1575319858.15924,1760.38
1575319858.1681862,1776.39
1575319858.1759,1792.8
1575319858.1886458,1802.54
1575319858.1962109,1804.78
1575319858.204986,1802.09
1575319858.216824,1796.01
1575319858.225051,1790.84
1575319858.233217,1784.22
1575319858.241876,1776.26
1575319858.25552,1767.86
1575319858.261604,1755.99
1575319858.270088,1745.31
1575319858.282121,1738.88
1575319858.291039,1733.2
1575319858.298522,1728.74
1575319858.307619,1725.17
1575319858.318975,1720.28
1575319858.327254,1715.67
1575319858.335739,1712.01
1575319858.3477519,1707.16
1575319858.3564212,1701.16
1575319858.364237,1694.2
1575319858.373271,1692.49
1575319858.3879218,1703.97
1575319858.3926778,1737.81
1575319858.4009202,1780.6
1575319858.41331,1845.72
1575319858.422399,1912.4
1575319858.429672,1960.49
1575319858.4384792,2009.99
1575319858.450311,2046.84
1575319858.4581819,2069.04
1575319858.4667242,2090.85
1575319858.478747,2108.19
1575319858.488532,2119.46
1575319858.4952161,2130.37
1575319858.503957,2136.92
1575319858.515638,2138.47
1575319858.524342,2136.07
1575319858.532012,2130.59
1575319858.54415,2125.1
1575319858.552514,2116.52
1575319858.560592,2106.09
1575319858.5690172,2097.01
1575319858.5812821,2085.95
1575319858.590165,2076.84
1575319858.597667,2069.1
1575319858.609659,2062.75
1575319858.6221418,2053.29
1575319858.6262379,2042.99
1575319858.634718,2035.59
1575319858.646713,2027.77
1575319858.655443,2021.03
1575319858.663181,2015.96
1575319858.675216,2008.68
1575319858.6839502,2000.15
1575319858.691648,1992.9
1575319858.700161,1984.28
1575319858.712329,1977.23
1575319858.722028,1972.38
1575319858.7286808,1965.73
1575319858.74109,1957.18
1575319858.749145,1949.13
1575319858.757278,1939.11
1575319858.765669,1930.39
1575319858.777823,1923.88
1575319858.786145,1915.23
1575319858.794174,1906.83
1575319858.807015,1901.09
1575319858.8147452,1895.31
1575319858.823315,1889.83
1575319858.831275,1883.84
1575319858.8433301,1878.72
1575319858.8514612,1871.75
1575319858.859526,1864.66
1575319858.8726652,1859.41
1575319858.880329,1855.39
1575319858.888889,1854.41
1575319858.89686,1853.85
1575319858.9086971,1849.93
1575319858.917349,1840.86
1575319858.9259331,1831.2
1575319858.9383738,1819.24
1575319858.945696,1812.6
1575319858.954612,1812.76
1575319858.9622989,1817.17
1575319858.9744241,1820.77
1575319858.9826849,1819.47
1575319858.991075,1811.56
1575319859.0030751,1800.2
1575319859.0112371,1791.98
1575319859.019445,1785.76
1575319859.027644,1784.12
1575319859.040725,1784.53
1575319859.048102,1783.58
1575319859.057232,1774.14
1575319859.068539,1746.81
1575319859.076843,1708.3
1575319859.0852659,1639.67
1575319859.0933208,1552.73
1575319859.106378,1474.53
1575319859.1136792,1372.02
1575319859.1224709,1270.28
1575319859.13423,1192.66
1575319859.142213,1102.43
1575319859.150909,1020.95
1575319859.1588311,963.05
1575319859.1671522,912.26
1575319859.174933,858.31
1575319859.183506,821.58
1575319859.1919382,789.37
1575319859.1998148,760.05
1575319859.2077131,732.48
1575319859.216342,706.81
1575319859.224511,679.17
1575319859.232681,661.3
1575319859.241062,647.51
1575319859.252994,637.69
1575319859.26103,630.77
1575319859.2691998,625.72
1575319859.2775302,621.3
1575319859.285862,619.76
1575319859.2937589,620.85
1575319859.302203,625.48
1575319859.310137,633.62
1575319859.318538,643.97
1575319859.3265269,658.62
1575319859.334956,670.39
1575319859.342904,681.7
1575319859.351219,693.13
1575319859.359266,705.81
1575319859.3678799,719.87
1575319859.375725,734.2
1575319859.384324,750.52
1575319859.3922691,761.65
1575319859.400384,771.66
1575319859.4084191,782.19
1575319859.4171069,793.77
1575319859.425123,806.27
1575319859.433274,822.18
1575319859.441219,834.9
1575319859.4497359,847.35
1575319859.458485,859.15
1575319859.4659698,870.19
1575319859.4740858,880.64
1575319859.4826071,893.37
1575319859.491172,904.3
1575319859.498865,916.1
1575319859.507415,928.29
1575319859.519289,940.0
1575319859.527318,950.42
1575319859.5354528,960.54
1575319859.543585,966.47
1575319859.5520651,971.22
1575319859.559963,975.38
1575319859.568395,978.91
1575319859.5764081,982.71
1575319859.584807,986.81
1575319859.592771,992.87
1575319859.601272,999.24
1575319859.609212,1007.25
1575319859.6176379,1018.12
1575319859.629759,1025.51
1575319859.6386502,1029.49
1575319859.646212,1029.65
1575319859.6582348,1035.45
1575319859.6671731,1064.28
1575319859.6752808,1125.44
1575319859.683242,1193.18
1575319859.695335,1285.48
1575319859.7051468,1367.74
1575319859.7117372,1419.16
1575319859.724401,1465.71
1575319859.732299,1498.55
1575319859.7407749,1519.08
1575319859.748811,1539.86
1575319859.76066,1556.55
1575319859.769106,1570.01
1575319859.777218,1578.32
1575319859.790389,1585.4
1575319859.797812,1589.43
1575319859.806575,1591.54
1575319859.814325,1593.63
1575319859.8263721,1595.97
1575319859.8351748,1598.09
1575319859.842711,1600.93
1575319859.855712,1603.43
1575319859.863384,1604.04
1575319859.872263,1602.74
1575319859.87967,1600.45
1575319859.891836,1599.14
1575319859.900604,1599.42
1575319859.9088461,1601.76
1575319859.921914,1604.21
1575319859.9287949,1606.07
1575319859.938282,1606.57
1575319859.945227,1606.84
1575319859.9575522,1607.36
1575319859.9658408,1607.84
1575319859.97403,1606.81
1575319859.989013,1601.32
1575319859.99422,1591.26
1575319860.002739,1579.6
1575319860.010636,1571.33
1575319860.023683,1563.26
1575319860.0310888,1555.64
1575319860.0403688,1548.38
1575319860.0517828,1537.94
1575319860.059726,1527.24
1575319860.0681431,1520.25
1575319860.076189,1515.72
1575319860.089231,1513.57
1575319860.096821,1511.26
1575319860.105571,1512.31
1575319860.1175702,1529.5
1575319860.125792,1561.5
1575319860.1339252,1625.02
1575319860.141752,1706.95
1575319860.1545799,1778.35
1575319860.162424,1865.85
1575319860.171288,1942.8
1575319860.182988,1993.01
1575319860.190885,2040.75
1575319860.199338,2074.75
1575319860.2079601,2094.91
1575319860.2200909,2113.33
1575319860.227832,2125.88
1575319860.235989,2133.62
1575319860.248377,2136.89
1575319860.257181,2137.73
1575319860.2647161,2135.48
1575319860.273292,2131.52
1575319860.285297,2123.87
1575319860.293406,2113.68
1575319860.3017092,2104.55
1575319860.3136451,2092.32
1575319860.322687,2079.41
1575319860.3303108,2069.68
1575319860.3389509,2058.48
1575319860.351027,2048.16
1575319860.3588128,2042.6
1575319860.36721,2044.15
1575319860.379303,2057.62
1575319860.388261,2073.43
1575319860.395723,2091.41
1575319860.4054358,2101.65
1575319860.416116,2103.57
1575319860.424285,2099.8
1575319860.432736,2091.98
1575319860.444919,2085.0
1575319860.453266,2077.55
1575319860.461301,2072.4
1575319860.4694889,2067.5
1575319860.481906,2062.03
1575319860.4910002,2052.7
1575319860.498337,2041.5
1575319860.510457,2031.41
1575319860.518844,2017.96
1575319860.526967,2005.9
1575319860.535115,1998.32
1575319860.547246,1991.08
1575319860.556046,1985.94
1575319860.56353,1982.36
1575319860.575823,1976.79
1575319860.584335,1968.68
1575319860.5922391,1960.38
1575319860.6009312,1948.67
1575319860.612747,1936.56
1575319860.622893,1927.37
1575319860.629107,1917.05
1575319860.641335,1908.53
1575319860.64979,1902.56
1575319860.658227,1895.47
1575319860.6662881,1888.15
1575319860.6782131,1881.92
1575319860.692127,1873.97
1575319860.6946828,1866.45
1575319860.707278,1859.08
1575319860.715484,1852.33
1575319860.724544,1843.29
1575319860.7317739,1835.26
1575319860.743924,1830.55
1575319860.752316,1826.52
1575319860.7603068,1824.77
1575319860.768596,1824.73
1575319860.780891,1824.71
1575319860.7896068,1821.61
1575319860.797241,1812.89
1575319860.809481,1787.94
1575319860.817844,1742.91
1575319860.82592,1693.11
1575319860.834371,1617.79
1575319860.846435,1534.34
1575319860.8556,1465.57
1575319860.862611,1380.69
1575319860.874868,1299.17
1575319860.8833642,1237.45
1575319860.8919501,1165.82
1575319860.900094,1100.19
1575319860.912077,1051.77
1575319860.920727,996.12
1575319860.9283469,956.28
1575319860.937441,920.26
1575319860.944661,878.67
1575319860.952961,847.27
1575319860.960982,817.51
1575319860.96941,790.37
1575319860.977466,765.78
1575319860.9884028,743.1
1575319860.9936068,717.44
1575319861.00212,700.04
1575319861.0100439,685.69
1575319861.018799,674.85
1575319861.0264142,667.94
1575319861.034855,664.59
1575319861.042815,665.16
1575319861.0511758,669.21
1575319861.05921,676.03
1575319861.0680058,685.29
1575319861.075584,697.08
1575319861.0844932,710.76
1575319861.0919502,729.52
1575319861.105406,744.59
1575319861.112463,758.69
1575319861.121588,771.61
1575319861.128979,783.81
1575319861.137734,795.81
1575319861.145378,807.94
1575319861.1545742,822.82
1575319861.161737,835.09
1575319861.169879,847.77
1575319861.178047,860.73
1575319861.1862779,873.65
1575319861.1944351,886.32
1575319861.2027252,900.4
1575319861.210766,910.03
1575319861.219101,918.38
1575319861.227333,925.63
1575319861.236125,932.23
1575319861.243495,938.7
1575319861.252031,947.67
1575319861.259864,956.6
1575319861.268404,967.06
1575319861.276274,978.34
1575319861.284912,989.14
1575319861.292653,998.94
1575319861.3058171,1009.81
1575319861.3133671,1018.59
1575319861.322146,1031.3
1575319861.329721,1045.33
1575319861.34182,1056.51
1575319861.3503082,1069.77
1575319861.3590982,1081.21
1575319861.371763,1087.45
1575319861.378871,1091.82
1575319861.387257,1101.31
1575319861.3952231,1122.31
1575319861.4079099,1173.07
1575319861.415534,1251.67
1575319861.423826,1328.13
1575319861.4362571,1425.33
1575319861.444345,1507.5
1575319861.4525828,1556.49
1575319861.460667,1598.4
1575319861.473579,1624.96
1575319861.48118,1639.81
1575319861.48984,1653.57
1575319861.501996,1666.62
1575319861.509737,1683.42
1575319861.518201,1721.08
1575319861.5262332,1780.77
1575319861.5393212,1856.42
1575319861.5466812,1920.57
1575319861.556125,1994.99
1575319861.567465,2055.15
1575319861.5752902,2091.46
1575319861.583872,2124.11
1575319861.592145,2145.36
1575319861.604566,2156.32
1575319861.6123881,2164.1
1575319861.6212091,2166.96
1575319861.6330519,2166.35
1575319861.641267,2161.73
1575319861.649332,2152.88
1575319861.657412,2142.87
1575319861.669655,2127.93
1575319861.6777642,2116.01
1575319861.686044,2113.55
1575319861.698336,2121.61
1575319861.707026,2138.08
1575319861.714693,2152.01
1575319861.7232692,2165.69
1575319861.735307,2172.9
1575319861.743285,2174.96
1575319861.752054,2175.37
1575319861.759656,2174.07
1575319861.773159,2170.17
1575319861.780137,2165.15
1575319861.788882,2157.61
1575319861.80094,2149.58
1575319861.808744,2143.22
1575319861.8174,2135.37
1575319861.825423,2127.17
1575319861.83832,2119.84
1575319861.8458,2110.18
1575319861.854774,2100.22
1575319861.866443,2091.28
1575319861.874291,2080.16
1575319861.882812,2073.2
1575319861.891407,2072.39
1575319861.9036942,2075.15
1575319861.911598,2077.13
1575319861.922254,2075.31
1575319861.931659,2068.58
1575319861.940635,2058.54
1575319861.9480672,2050.18
1575319861.957344,2041.01
1575319861.968769,2033.69
1575319861.976722,2028.48
1575319861.987438,2021.44
1575319861.997378,2012.12
1575319862.005996,1999.83
1575319862.013737,1988.4
1575319862.022393,1973.48
1575319862.034513,1959.3
1575319862.042333,1949.1
1575319862.050654,1935.66
1575319862.062728,1914.63
1575319862.071858,1886.25
1575319862.079296,1831.62
1575319862.0880902,1756.42
1575319862.099884,1685.12
1575319862.1084101,1588.3
1575319862.116173,1489.66
1575319862.1283689,1413.15
1575319862.1367471,1322.49
1575319862.144741,1237.31
1575319862.152982,1173.5
1575319862.165382,1101.11
1575319862.17403,1039.66
1575319862.1817868,999.26
1575319862.190335,958.3
1575319862.198028,931.39
1575319862.2067661,907.98
1575319862.214648,887.22
1575319862.2236319,869.7
1575319862.230848,856.66
1575319862.23952,848.39
1575319862.247218,848.21
1575319862.25599,852.82
1575319862.2635992,859.96
1575319862.27247,867.95
1575319862.2801101,875.73
1575319862.2892191,885.64
1575319862.300792,894.91
1575319862.3086872,905.7
1575319862.316891,917.3
1575319862.324903,928.83
1575319862.3333251,939.04
1575319862.341612,947.26
1575319862.3496509,953.99
1575319862.3579872,957.45
1575319862.365854,960.79
1575319862.374636,965.17
1575319862.382466,970.6
1575319862.391041,976.8
1575319862.398836,984.49
1575319862.4075751,990.23
1575319862.415052,995.2
1575319862.423619,999.71
1575319862.4317079,1003.71
1575319862.443582,1009.76
1575319862.452076,1017.2
1575319862.4600818,1024.57
1575319862.468371,1035.63
1575319862.480545,1047.76
1575319862.489407,1058.16
1575319862.497189,1071.83
1575319862.5092192,1086.19
1575319862.517951,1097.87
1575319862.5260658,1111.81
1575319862.534157,1123.36
1575319862.546062,1129.54
1575319862.555163,1132.34
1575319862.562551,1129.09
1575319862.5747101,1125.81
1575319862.58321,1133.63
1575319862.592038,1169.33
1575319862.599531,1222.43
1575319862.611736,1314.19
1575319862.620049,1420.67
1575319862.628074,1527.0
1575319862.640633,1604.88
1575319862.64877,1689.66
1575319862.657482,1761.17
1575319862.665014,1810.02
1575319862.677195,1861.51
1575319862.685654,1903.49
1575319862.693559,1931.89
1575319862.70643,1962.26
1575319862.7142122,1987.69
1575319862.722974,2004.59
1575319862.7305532,2020.83
1575319862.7425878,2031.14
1575319862.751262,2035.43
1575319862.759139,2037.49
1575319862.772146,2037.8
1575319862.7797408,2037.54
1575319862.788866,2036.15
1575319862.796281,2033.02
1575319862.808588,2029.29
1575319862.8165529,2023.14
1575319862.82455,2015.36
1575319862.837116,2008.38
1575319862.845102,1998.75
1575319862.853421,1988.09
1575319862.861511,1976.22
1575319862.874335,1966.27
1575319862.8822458,1955.25
1575319862.891042,1947.56
1575319862.9026601,1943.31
1575319862.9106681,1940.16
1575319862.9194949,1942.51
1575319862.9270542,1950.29
1575319862.939949,1967.13
1575319862.947639,1988.99
1575319862.956328,2008.91
1575319862.96836,2037.02
1575319862.9761631,2068.02
1575319862.986649,2092.58
1575319862.992563,2116.47
1575319863.0057878,2126.75
1575319863.01314,2124.03
1575319863.0222201,2108.9
1575319863.033935,2084.72
1575319863.041802,2059.6
1575319863.0499752,2021.61
1575319863.058166,1980.7
1575319863.0710342,1951.76
1575319863.0787141,1926.58
1575319863.087281,1913.24
1575319863.099531,1905.84
1575319863.1083462,1900.31
1575319863.115715,1892.45
1575319863.124119,1885.82
1575319863.1361642,1881.98
1575319863.14451,1878.07
1575319863.1525068,1874.45
1575319863.16463,1871.74
1575319863.17344,1869.04
1575319863.181144,1867.47
1575319863.189846,1866.81
1575319863.201729,1865.19
1575319863.20979,1861.37
1575319863.2178822,1856.72
1575319863.2302809,1850.05
1575319863.238828,1843.93
1575319863.246612,1839.5
1575319863.2557151,1835.28
1575319863.267313,1834.89
1575319863.2752142,1837.29
1575319863.283681,1838.88
1575319863.295703,1836.15
1575319863.3047051,1832.8
1575319863.312153,1829.78
1575319863.321024,1827.48
1575319863.3327858,1823.36
1575319863.341394,1817.52
1575319863.349076,1807.95
1575319863.3614452,1797.45
1575319863.369535,1789.09
1575319863.3775811,1778.48
1575319863.385886,1767.98
1575319863.39822,1759.92
1575319863.407052,1750.89
1575319863.4146938,1744.02
1575319863.426643,1739.95
1575319863.43919,1735.52
1575319863.4432142,1730.69
1575319863.451714,1726.52
1575319863.463552,1720.4
1575319863.472569,1713.15
1575319863.480126,1707.01
1575319863.492397,1700.77
1575319863.500916,1697.71
1575319863.508852,1697.47
1575319863.5170481,1698.48
1575319863.529335,1699.13
1575319863.538881,1698.49
1575319863.545596,1695.69
1575319863.557835,1690.88
1575319863.566048,1685.75
1575319863.574347,1682.7
1575319863.5826519,1680.56
1575319863.594636,1678.87
1575319863.6028118,1676.94
1575319863.61122,1674.25
1575319863.6241338,1672.68
1575319863.6318011,1672.16
1575319863.640361,1670.43
1575319863.648166,1666.26
1575319863.660104,1662.58
1575319863.668575,1659.92
1575319863.6766038,1661.26
1575319863.689214,1665.03
1575319863.697312,1669.62
1575319863.706239,1669.55
1575319863.713668,1664.9
1575319863.7257018,1655.28
1575319863.734813,1645.04
1575319863.742188,1640.66
1575319863.755059,1643.27
1575319863.76273,1653.16
1575319863.771501,1661.82
1575319863.779129,1667.37
1575319863.791283,1665.56
1575319863.799785,1658.85
1575319863.807644,1652.07
1575319863.8201149,1644.78
1575319863.828317,1640.6
1575319863.836719,1639.42
1575319863.844567,1641.0
1575319863.857374,1646.65
1575319863.8652952,1652.42
1575319863.873803,1655.33
1575319863.88571,1650.74
1575319863.893794,1643.76
1575319863.9021719,1634.53
1575319863.910076,1626.92
1575319863.923315,1623.64
1575319863.9307258,1624.4
1575319863.939266,1626.43
1575319863.951325,1625.93
1575319863.95922,1624.42
1575319863.968003,1625.32
1575319863.975772,1625.98
1575319863.9894242,1621.56
1575319863.99614,1609.97
1575319864.0051599,1599.03
1575319864.016917,1586.82
1575319864.024776,1576.33
1575319864.033151,1566.51
1575319864.041164,1559.7
1575319864.053983,1554.12
1575319864.061564,1553.21
1575319864.071234,1554.99
1575319864.0824761,1558.26
1575319864.090981,1561.98
1575319864.098766,1565.1
1575319864.107328,1567.58
1575319864.119172,1567.49
1575319864.127124,1566.51
1575319864.135594,1566.55
1575319864.147608,1569.79
1575319864.156608,1574.62
1575319864.164145,1580.48
1575319864.17295,1583.14
1575319864.1846778,1583.27
1575319864.193213,1583.85
1575319864.2011552,1587.18
1575319864.2132502,1591.46
1575319864.2220109,1596.65
1575319864.229753,1598.95
1575319864.2390022,1597.05
1575319864.250273,1590.1
1575319864.258187,1582.14
1575319864.266725,1578.48
1575319864.2786748,1579.68
1575319864.287387,1583.62
1575319864.295271,1586.87
1575319864.303623,1588.18
1575319864.3157592,1587.6
1575319864.324214,1583.67
1575319864.3321888,1578.59
1575319864.344162,1572.24
1575319864.3527548,1568.57
1575319864.360654,1567.7
1575319864.369678,1566.79
1575319864.38136,1566.14
1575319864.390196,1566.77
1575319864.39779,1568.07
1575319864.409726,1569.12
1575319864.418706,1570.1
1575319864.4261818,1573.08
1575319864.434547,1579.42
1575319864.4468448,1585.77
1575319864.455605,1590.0
1575319864.463203,1585.68
1575319864.472267,1576.58
1575319864.4837382,1563.45
1575319864.4917388,1552.72
1575319864.5001512,1544.81
1575319864.512326,1539.7
1575319864.5212438,1534.56
1575319864.530101,1531.01
1575319864.536865,1529.32
1575319864.5492322,1526.72
1575319864.558149,1521.48
1575319864.565454,1514.79
1575319864.5776262,1504.33
1575319864.586105,1496.29
1575319864.59416,1494.9
1575319864.6027431,1499.96
1575319864.614689,1508.26
1575319864.6237068,1514.19
1575319864.631148,1519.27
1575319864.643214,1521.69
1575319864.651822,1521.25
1575319864.659777,1516.41
1575319864.668134,1506.73
1575319864.680429,1498.29
1575319864.688956,1491.23
1575319864.696775,1489.11
1575319864.7087731,1488.55
1575319864.71736,1486.57
1575319864.726031,1484.44
1575319864.7337012,1484.37
1575319864.745929,1486.33
1575319864.75453,1491.29
1575319864.7621918,1497.65
1575319864.774889,1502.32
1575319864.782756,1506.43
1575319864.791569,1507.64
1575319864.799244,1505.91
1575319864.811315,1502.75
1575319864.819718,1502.22
1575319864.827631,1504.79
1575319864.840372,1510.1
1575319864.848335,1511.7
1575319864.857159,1508.44
1575319864.864639,1502.42
1575319864.8766909,1499.49
1575319864.8854232,1501.99
1575319864.8933802,1509.2
1575319864.9060748,1515.42
1575319864.913738,1518.81
1575319864.9227679,1522.26
1575319864.929996,1525.0
1575319864.942301,1526.55
1575319864.9508228,1527.57
1575319864.9586601,1527.98
1575319864.9722948,1528.58
1575319864.9793322,1530.44
1575319864.9880161,1535.38
1575319864.995727,1541.8
1575319865.0081122,1547.15
1575319865.016265,1552.32
1575319865.024694,1554.59
1575319865.036729,1554.29
1575319865.044769,1551.72
1575319865.0530229,1547.19
1575319865.061037,1542.33
1575319865.0746372,1536.17
1575319865.081717,1531.86
1575319865.090276,1530.79
1575319865.106271,1531.54
1575319865.110222,1532.23
1575319865.1185658,1530.95
1575319865.126527,1527.0
1575319865.139198,1522.53
1575319865.147277,1520.47
1575319865.156218,1520.03
1575319865.168066,1521.02
1575319865.175809,1522.52
1575319865.184216,1522.79
1575319865.192159,1519.64
1575319865.205428,1513.78
1575319865.21278,1508.41
1575319865.221921,1502.33
1575319865.233551,1498.72
1575319865.2412422,1498.47
1575319865.2497249,1502.06
1575319865.257854,1508.66
1575319865.271272,1513.83
1575319865.278173,1518.06
1575319865.2872279,1519.02
1575319865.299009,1517.92
1575319865.307523,1515.15
1575319865.31513,1513.69
1575319865.3237278,1515.36
1575319865.335828,1520.36
1575319865.3439732,1523.57
1575319865.352134,1521.52
1575319865.364285,1513.58
1575319865.3729699,1503.63
1575319865.3808682,1496.46
1575319865.389812,1488.8
1575319865.4013598,1480.47
1575319865.4091818,1473.02
1575319865.4182029,1465.7
1575319865.4297888,1464.22
1575319865.4387681,1468.46
1575319865.44609,1474.16
1575319865.454935,1483.28
1575319865.466762,1493.96
1575319865.474705,1503.63
1575319865.4832692,1516.11
1575319865.495279,1526.72
1575319865.503867,1532.51
1575319865.511851,1535.69
1575319865.519949,1534.57
1575319865.532436,1531.73
1575319865.541318,1529.02
1575319865.5486531,1530.39
1575319865.560717,1535.07
1575319865.569228,1542.54
1575319865.577183,1548.61
1575319865.5855,1552.06
1575319865.597891,1555.77
1575319865.608163,1558.88
1575319865.61408,1560.99
1575319865.626257,1562.94
1575319865.6348438,1563.03
1575319865.642646,1561.76
1575319865.6514711,1559.79
1575319865.663433,1558.17
1575319865.67265,1556.89
1575319865.679483,1556.07
1575319865.692117,1554.59
1575319865.700351,1550.7
1575319865.7082722,1545.99
1575319865.7164319,1540.16
1575319865.7289758,1535.4
1575319865.740983,1532.73
1575319865.745276,1531.43
1575319865.757783,1531.99
1575319865.765864,1532.92
1575319865.7743301,1535.14
1575319865.7822342,1541.12
1575319865.79438,1550.8
1575319865.802696,1566.52
1575319865.8108082,1580.63
1575319865.823524,1589.0
1575319865.83139,1595.42
1575319865.840139,1595.49
1575319865.847668,1590.86
1575319865.859735,1580.84
1575319865.868414,1569.74
1575319865.8761501,1562.44
1575319865.889632,1556.15
1575319865.896821,1550.18
1575319865.905612,1542.9
1575319865.913218,1536.79
1575319865.925259,1529.8
1575319865.933595,1524.69
1575319865.94173,1522.29
1575319865.954421,1519.81
1575319865.962393,1517.32
1575319865.9708428,1516.35
1575319865.978845,1516.84
1575319865.9911869,1518.14
1575319865.999346,1519.04
1575319866.007841,1520.31
1575319866.019795,1521.28
1575319866.027821,1521.52
1575319866.036134,1522.03
1575319866.044052,1523.43
1575319866.0568051,1525.8
1575319866.064592,1528.69
1575319866.0734599,1528.99
1575319866.085414,1526.93
1575319866.093215,1523.84
1575319866.101789,1523.81
1575319866.10966,1526.85
1575319866.122991,1533.01
1575319866.130348,1539.85
1575319866.139051,1547.29
1575319866.151126,1553.77
1575319866.15972,1561.16
1575319866.167161,1565.38
1575319866.17517,1565.58
1575319866.1884758,1561.53
1575319866.195864,1552.42
1575319866.205125,1542.1
1575319866.21649,1526.06
1575319866.224884,1508.77
1575319866.2328398,1497.93
1575319866.241358,1491.75
1575319866.253047,1490.17
1575319866.261358,1486.4
1575319866.2696981,1474.92
1575319866.2817569,1461.08
1575319866.290637,1453.4
1575319866.2982662,1449.13
1575319866.306803,1445.61
1575319866.318757,1439.53
1575319866.326771,1427.18
1575319866.335219,1413.24
1575319866.347216,1404.79
1575319866.356757,1400.48
1575319866.3641548,1402.57
1575319866.37328,1408.73
1575319866.384232,1415.15
1575319866.392375,1424.61
1575319866.400586,1434.76
1575319866.412725,1442.3
1575319866.4227588,1450.79
1575319866.429434,1458.66
1575319866.438402,1463.92
1575319866.449671,1469.19
1575319866.45791,1474.62
1575319866.466101,1479.94
1575319866.4782872,1488.58
1575319866.48655,1500.07
1575319866.494761,1509.62
1575319866.503349,1519.11
1575319866.515239,1524.19
1575319866.5245628,1525.61
1575319866.5315871,1526.04
1575319866.543724,1526.06
1575319866.553737,1525.26
1575319866.560225,1524.36
1575319866.568703,1524.83
1575319866.5807428,1527.17
1575319866.589987,1532.54
1575319866.597091,1540.48
1575319866.6093152,1549.64
1575319866.61779,1555.64
1575319866.6258528,1560.98
1575319866.634155,1564.16
1575319866.6462479,1566.56
1575319866.655272,1571.16
1575319866.6625988,1577.61
1575319866.674897,1583.12
1575319866.683151,1588.97
1575319866.6916249,1594.41
1575319866.699475,1598.57
1575319866.7117891,1603.59
1575319866.720036,1607.09
1575319866.7281852,1607.83
1575319866.7414348,1606.21
1575319866.748589,1602.32
1575319866.7576919,1598.65
1575319866.765114,1594.32
1575319866.777345,1589.77
1575319866.785706,1585.89
1575319866.793729,1581.04
1575319866.8067431,1576.81
1575319866.814167,1574.28
1575319866.822943,1572.91
1575319866.830539,1573.41
1575319866.8428109,1574.32
1575319866.85124,1574.51
1575319866.859298,1574.04
1575319866.872546,1572.22
1575319866.8796759,1569.41
1575319866.888808,1565.28
1575319866.8961082,1562.85
1575319866.908412,1563.04
1575319866.916608,1563.13
1575319866.924831,1559.55
1575319866.9387589,1554.33
1575319866.9452212,1547.46
1575319866.953572,1543.08
1575319866.961743,1541.66
1575319866.974775,1539.65
1575319866.9820411,1535.44
1575319866.990858,1532.62
1575319867.002918,1533.22
1575319867.010783,1538.34
1575319867.01909,1544.01
1575319867.027253,1550.62
1575319867.040104,1553.93
1575319867.0478,1553.42
1575319867.057322,1549.37
1575319867.0685482,1544.49
1575319867.076284,1543.39
1575319867.084926,1545.62
1575319867.092698,1549.19
1575319867.10607,1551.34
1575319867.11323,1552.32
1575319867.122163,1554.27
1575319867.1342678,1558.71
1575319867.1419399,1563.97
1575319867.150275,1571.59
1575319867.158238,1577.47
1575319867.171754,1579.18
1575319867.178859,1579.01
1575319867.1881611,1578.81
1575319867.199481,1578.38
1575319867.20793,1575.03
1575319867.2158878,1568.33
1575319867.224442,1562.11
1575319867.2363389,1556.43
1575319867.2442749,1554.39
1575319867.2526379,1554.28
1575319867.2647738,1556.55
1575319867.2735932,1563.45
1575319867.28124,1569.84
1575319867.2899,1573.53
1575319867.301997,1574.06
1575319867.3099039,1574.4
1575319867.3180642,1572.84
1575319867.330451,1569.2
1575319867.339284,1566.37
1575319867.34688,1562.48
1575319867.355659,1554.48
1575319867.367168,1548.63
1575319867.3753002,1547.4
1575319867.383757,1545.51
1575319867.395787,1538.97
1575319867.4042501,1532.59
1575319867.412172,1527.92
1575319867.420557,1528.32
1575319867.432768,1531.43
1575319867.441685,1535.13
1575319867.449306,1536.37
1575319867.461395,1537.05
1575319867.4696581,1540.2
1575319867.477731,1543.81
1575319867.4862819,1545.16
1575319867.498424,1546.07
1575319867.507062,1549.02
1575319867.514784,1553.25
1575319867.52687,1557.31
1575319867.535436,1558.41
1575319867.543277,1558.42
1575319867.551732,1557.88
1575319867.563756,1555.43
1575319867.5728629,1551.22
1575319867.580174,1547.92
1575319867.5923688,1544.27
1575319867.6010098,1541.54
1575319867.6088169,1541.35
1575319867.617244,1544.94
1575319867.629399,1550.67
1575319867.637793,1555.54
1575319867.645716,1562.65
1575319867.657959,1571.45
1575319867.6664782,1577.54
1575319867.6744032,1581.49
1575319867.6828191,1580.84
1575319867.694782,1577.55
1575319867.703177,1572.05
1575319867.711175,1565.98
1575319867.724268,1561.42
1575319867.731922,1556.65
1575319867.7405849,1552.77
1575319867.7484102,1549.68
1575319867.76042,1546.19
1575319867.768965,1544.3
1575319867.776701,1544.84
1575319867.7897081,1546.62
1575319867.797354,1547.71
1575319867.8062432,1546.46
1575319867.813781,1544.3
1575319867.8258681,1542.01
1575319867.834423,1541.32
1575319867.842564,1542.23
1575319867.855146,1543.61
1575319867.862916,1540.51
1575319867.871946,1529.55
1575319867.879427,1500.04
1575319867.891374,1452.4
1575319867.899922,1402.75
1575319867.909174,1329.85
1575319867.920274,1251.08
1575319867.928284,1188.17
1575319867.9381819,1111.5
1575319867.944866,1038.04
1575319867.95326,983.68
1575319867.96112,923.61
1575319867.969522,882.4
1575319867.98175,847.25
1575319867.990475,818.56
1575319867.997916,796.34
1575319868.0070772,780.82
1575319868.014527,769.42
1575319868.022906,765.18
1575319868.0308301,764.07
1575319868.0394619,764.82
1575319868.047272,766.93
1575319868.056458,768.86
1575319868.063443,768.4
1575319868.0725482,763.32
1575319868.079957,752.56
1575319868.088521,736.39
1575319868.0964081,715.15
1575319868.105265,689.91
1575319868.1128309,661.86
1575319868.121967,627.09
1575319868.129187,603.8
1575319868.137541,586.49
1575319868.145556,574.94
1575319868.153884,567.5
1575319868.16186,562.61
1575319868.170079,558.82
1575319868.178327,557.06
1575319868.186683,557.23
1575319868.1945841,559.44
1575319868.202971,562.87
1575319868.210942,567.23
1575319868.2195761,574.81
1575319868.2273111,583.11
1575319868.2357519,593.06
1575319868.247999,603.28
1575319868.256767,611.76
1575319868.264332,617.51
1575319868.2728808,621.52
1575319868.280673,623.89
1575319868.2893639,627.3
1575319868.2971,632.69
1575319868.306023,641.22
1575319868.313511,652.09
1575319868.3223581,664.51
1575319868.3298528,680.06
1575319868.338228,690.45
1575319868.346246,697.94
1575319868.354511,704.25
1575319868.36247,711.8
1575319868.372483,721.72
1575319868.378995,736.46
1575319868.3879921,749.62
1575319868.395411,762.74
1575319868.403559,774.94
1575319868.411799,785.14
1575319868.420147,792.92
1575319868.428055,800.18
1575319868.4380648,805.47
1575319868.444614,811.41
1575319868.452867,819.34
1575319868.460774,829.51
1575319868.4693341,841.23
1575319868.4771369,855.79
1575319868.48559,866.37
1575319868.4937851,876.48
1575319868.50239,886.67
1575319868.5141811,897.39
1575319868.5229812,908.93
1575319868.530578,921.15
1575319868.539283,937.26
1575319868.5469341,950.26
1575319868.55584,962.39
1575319868.563232,972.38
1575319868.572226,981.29
1575319868.579545,994.9
1575319868.5885692,1030.16
1575319868.596169,1079.0
1575319868.6082602,1166.79
1575319868.616735,1278.27
1575319868.625522,1378.85
1575319868.633098,1511.92
1575319868.6453362,1647.71
