1575320259.328544,0.0
1575320259.336895,0.0
1575320259.340234,0.0
1575320259.348334,0.0
1575320259.353385,0.0
1575320259.360606,0.0
1575320259.36483,0.0
1575320259.372824,0.0
1575320259.3810298,15.09
1575320259.3892758,15.09
1575320259.3934138,15.09
1575320259.401761,58.47
1575320259.40975,162.38
1575320259.4187799,400.6
1575320259.4263659,638.37
1575320259.435366,792.22
1575320259.442522,917.46
1575320259.455092,1020.39
1575320259.463082,1124.67
1575320259.471411,1192.59
1575320259.479425,1262.24
1575320259.491581,1318.92
1575320259.500711,1356.89
1575320259.508223,1395.65
1575320259.520329,1426.58
1575320259.528714,1452.17
1575320259.5366871,1470.45
1575320259.545177,1493.29
1575320259.557306,1519.98
1575320259.566266,1545.15
1575320259.573745,1578.8
1575320259.586041,1607.92
1575320259.594151,1622.87
1575320259.60228,1630.54
1575320259.610532,1630.36
1575320259.622859,1626.72
1575320259.63111,1618.03
1575320259.639241,1604.67
1575320259.651801,1591.74
1575320259.659692,1575.41
1575320259.668354,1562.99
1575320259.6762502,1557.82
1575320259.688257,1555.68
1575320259.700091,1555.04
1575320259.70469,1555.1
1575320259.7174962,1555.42
1575320259.725467,1555.78
1575320259.73395,1556.02
1575320259.741823,1556.58
1575320259.75375,1557.95
1575320259.762235,1559.88
1575320259.77021,1561.24
1575320259.783054,1562.01
1575320259.7908401,1562.05
1575320259.799726,1561.52
1575320259.8072078,1559.02
1575320259.819346,1554.1
1575320259.827735,1549.15
1575320259.835804,1543.15
1575320259.849174,1537.94
1575320259.856199,1533.93
1575320259.8660579,1528.42
1575320259.872554,1522.45
1575320259.8853068,1516.69
1575320259.893426,1507.02
1575320259.9018419,1495.48
1575320259.913594,1486.87
1575320259.921857,1480.41
1575320259.930082,1479.16
1575320259.9380841,1479.94
1575320259.950958,1481.05
1575320259.959012,1481.83
1575320259.9673128,1481.88
1575320259.979323,1480.91
1575320259.9873018,1480.29
1575320259.9958148,1481.32
1575320260.003642,1483.6
1575320260.016672,1488.33
1575320260.02432,1493.04
1575320260.033062,1495.95
1575320260.0450659,1498.5
1575320260.0528681,1501.22
1575320260.061281,1502.95
1575320260.069207,1504.18
1575320260.082846,1505.07
1575320260.089847,1506.11
1575320260.100003,1508.27
1575320260.110372,1510.5
1575320260.1188009,1511.18
1575320260.126687,1510.13
1575320260.135148,1508.48
1575320260.147111,1507.49
1575320260.155216,1507.05
1575320260.163597,1507.64
1575320260.171663,1508.92
1575320260.1842828,1510.62
1575320260.1923132,1511.1
1575320260.200881,1510.76
1575320260.21287,1510.16
1575320260.220896,1510.55
1575320260.2292511,1511.81
1575320260.23735,1513.57
1575320260.24993,1516.0
1575320260.257737,1516.54
1575320260.266528,1514.66
1575320260.2785642,1510.54
1575320260.286347,1505.72
1575320260.294827,1501.77
1575320260.3026402,1497.52
1575320260.3157718,1495.52
1575320260.323263,1496.1
1575320260.3330948,1497.11
1575320260.34361,1495.3
1575320260.351881,1490.97
1575320260.360199,1482.46
1575320260.3695529,1472.61
1575320260.380574,1465.89
1575320260.388785,1461.26
1575320260.397245,1461.09
1575320260.40924,1463.24
1575320260.4180312,1467.26
1575320260.425694,1471.62
1575320260.434556,1474.63
1575320260.446344,1478.15
1575320260.454334,1482.01
1575320260.462614,1485.61
1575320260.4747279,1487.88
1575320260.4835331,1490.31
1575320260.491307,1492.5
1575320260.500066,1494.5
1575320260.511894,1497.09
1575320260.5197299,1498.58
1575320260.528312,1498.88
1575320260.540323,1498.91
1575320260.549658,1499.98
1575320260.5567172,1502.02
1575320260.566419,1505.39
1575320260.577387,1509.5
1575320260.586174,1512.73
1575320260.5936599,1515.36
1575320260.60588,1516.12
1575320260.614219,1516.4
1575320260.6223161,1519.28
1575320260.6305778,1525.54
1575320260.64319,1532.05
1575320260.6515179,1541.08
1575320260.6593778,1549.74
1575320260.671307,1555.37
1575320260.679803,1560.41
1575320260.6877398,1563.36
1575320260.696137,1564.37
1575320260.70854,1563.45
1575320260.716872,1560.8
1575320260.72485,1557.15
1575320260.736768,1554.12
1575320260.745271,1550.74
1575320260.753183,1547.37
1575320260.761815,1544.79
1575320260.773945,1542.15
1575320260.78273,1539.29
1575320260.790288,1536.65
1575320260.802351,1533.03
1575320260.8108768,1529.4
1575320260.819283,1526.41
1575320260.827094,1523.24
1575320260.839453,1521.85
1575320260.849183,1521.86
1575320260.8556402,1522.51
1575320260.868366,1523.55
1575320260.876043,1524.81
1575320260.884883,1527.45
1575320260.89275,1531.05
1575320260.904866,1534.0
1575320260.913405,1535.46
1575320260.9211469,1532.35
1575320260.933949,1526.54
1575320260.941877,1522.71
1575320260.95028,1521.13
1575320260.958265,1522.88
1575320260.9703622,1526.26
1575320260.9786282,1532.13
1575320260.986691,1538.4
1575320260.99947,1542.98
1575320261.0073211,1548.32
1575320261.0164568,1553.46
1575320261.0236852,1558.35
1575320261.035869,1565.4
1575320261.044369,1571.71
1575320261.052267,1575.22
1575320261.065311,1576.63
1575320261.072812,1574.25
1575320261.081582,1570.3
1575320261.089256,1564.91
1575320261.101782,1561.86
1575320261.1098392,1561.36
1575320261.118448,1561.05
1575320261.130275,1560.71
1575320261.1383529,1560.7
1575320261.146642,1560.95
1575320261.1546319,1562.2
1575320261.167316,1565.1
1575320261.175422,1568.46
1575320261.184028,1573.3
1575320261.1956632,1577.03
1575320261.2037919,1577.75
1575320261.212115,1575.07
1575320261.220169,1570.14
1575320261.2332,1566.43
1575320261.240905,1562.51
1575320261.2500951,1558.74
1575320261.261581,1555.43
1575320261.2693172,1550.35
1575320261.277815,1543.99
1575320261.28571,1538.46
1575320261.300066,1532.17
1575320261.3063989,1527.33
1575320261.314469,1524.7
1575320261.326876,1524.07
1575320261.335518,1527.8
1575320261.3432362,1532.89
1575320261.352382,1538.08
1575320261.36357,1538.77
1575320261.371725,1536.45
1575320261.3800309,1532.43
1575320261.392363,1529.15
1575320261.401098,1526.78
1575320261.4087749,1525.24
1575320261.417366,1522.94
1575320261.429276,1518.71
1575320261.437243,1513.84
1575320261.445663,1507.49
1575320261.457802,1502.62
1575320261.466717,1501.59
1575320261.4744902,1504.36
1575320261.48289,1510.39
1575320261.494976,1516.36
1575320261.503197,1522.49
1575320261.511256,1523.64
1575320261.5233018,1519.97
1575320261.5322618,1512.13
1575320261.539837,1505.53
1575320261.5490491,1503.79
1575320261.560353,1507.37
1575320261.568901,1514.59
1575320261.5768452,1520.29
1575320261.58884,1525.13
1575320261.597132,1527.94
1575320261.605396,1529.76
1575320261.613603,1533.37
1575320261.6260118,1541.06
1575320261.634403,1553.16
1575320261.64224,1564.58
1575320261.6543858,1578.1
1575320261.662706,1587.84
1575320261.670769,1591.81
1575320261.6790621,1593.28
1575320261.691408,1591.86
1575320261.700015,1589.3
1575320261.707772,1585.63
1575320261.7198331,1581.48
1575320261.728485,1576.72
1575320261.7364302,1568.86
1575320261.744829,1560.54
1575320261.75697,1554.4
1575320261.765769,1548.37
1575320261.773442,1545.11
1575320261.7854111,1544.57
1575320261.7937658,1545.15
1575320261.8025758,1543.58
1575320261.8102021,1539.3
1575320261.822432,1531.34
1575320261.830631,1522.77
1575320261.838889,1516.71
1575320261.851878,1511.89
1575320261.859205,1511.82
1575320261.867863,1515.12
1575320261.875861,1517.79
1575320261.8880131,1520.17
1575320261.89625,1522.42
1575320261.904288,1525.11
1575320261.917197,1529.27
1575320261.924941,1531.99
1575320261.933515,1532.6
1575320261.94129,1533.16
1575320261.953325,1536.23
1575320261.962004,1541.29
1575320261.969867,1550.07
1575320261.983029,1559.65
1575320261.99044,1566.25
1575320261.9991128,1571.8
1575320262.006773,1573.25
1575320262.018982,1571.75
1575320262.027309,1567.76
1575320262.035598,1562.78
1575320262.04769,1559.5
1575320262.0558982,1557.29
1575320262.064102,1557.76
1575320262.0723588,1560.23
1575320262.0850801,1564.85
1575320262.092685,1569.44
1575320262.101307,1571.91
1575320262.113363,1571.18
1575320262.121367,1567.91
1575320262.129781,1563.26
1575320262.1378272,1559.37
1575320262.150541,1555.38
1575320262.1583202,1552.5
1575320262.167159,1550.65
1575320262.178684,1549.38
1575320262.186837,1550.58
1575320262.195321,1553.99
1575320262.20324,1559.67
1575320262.2166169,1563.57
1575320262.223841,1565.0
1575320262.232577,1565.79
1575320262.2444851,1567.08
1575320262.2524219,1568.2
1575320262.260808,1569.21
1575320262.26895,1569.8
1575320262.281543,1570.2
1575320262.289377,1569.92
1575320262.299625,1567.71
1575320262.309945,1564.68
1575320262.318485,1559.75
1575320262.326293,1555.44
1575320262.33494,1553.7
1575320262.3485708,1554.93
1575320262.3551419,1559.61
1575320262.363198,1566.09
1575320262.375297,1570.51
1575320262.384428,1574.31
1575320262.3918898,1575.01
1575320262.400487,1572.91
1575320262.4125729,1567.43
1575320262.420429,1561.27
1575320262.428674,1556.9
1575320262.440939,1551.4
1575320262.449732,1545.14
1575320262.457364,1540.07
1575320262.4666822,1534.27
1575320262.4778938,1530.39
1575320262.485889,1528.68
1575320262.494386,1527.49
1575320262.50636,1527.26
1575320262.515399,1527.86
1575320262.522902,1529.61
1575320262.53234,1531.85
1575320262.543529,1533.0
1575320262.551894,1532.66
1575320262.559902,1531.68
1575320262.571928,1531.52
1575320262.580242,1532.71
1575320262.5884988,1536.24
1575320262.59673,1539.54
1575320262.609003,1540.42
1575320262.617546,1539.0
1575320262.62544,1536.39
1575320262.637376,1535.11
1575320262.645995,1535.38
1575320262.653974,1536.7
1575320262.6621592,1536.87
1575320262.67451,1535.54
1575320262.6833751,1534.18
1575320262.690924,1534.42
1575320262.70294,1536.44
1575320262.711539,1539.31
1575320262.719382,1541.42
1575320262.727864,1543.8
1575320262.739878,1545.77
1575320262.749514,1546.74
1575320262.7563672,1546.6
1575320262.7689002,1546.32
1575320262.777067,1547.38
1575320262.785384,1549.94
1575320262.793598,1552.11
1575320262.805414,1552.42
1575320262.813757,1551.63
1575320262.821768,1550.06
1575320262.8344378,1547.97
1575320262.842432,1546.07
1575320262.8509288,1542.98
1575320262.858714,1539.17
1575320262.870841,1536.32
1575320262.879207,1533.87
1575320262.8872871,1532.9
1575320262.900012,1533.08
1575320262.9080791,1533.7
1575320262.916599,1533.97
1575320262.9244401,1533.85
1575320262.936373,1532.65
1575320262.944923,1530.21
1575320262.952808,1527.88
1575320262.965834,1524.52
1575320262.973386,1521.2
1575320262.982698,1519.49
1575320262.990058,1519.81
1575320263.002196,1522.29
1575320263.010327,1524.79
1575320263.018882,1527.36
1575320263.030926,1528.0
1575320263.038867,1525.98
1575320263.047151,1522.57
1575320263.0552409,1517.36
1575320263.068047,1513.1
1575320263.076065,1512.54
1575320263.084746,1515.44
1575320263.09679,1520.1
1575320263.104456,1523.4
1575320263.112685,1525.57
1575320263.120805,1525.14
1575320263.133552,1522.68
1575320263.1415648,1517.45
1575320263.149608,1512.32
1575320263.161991,1511.01
1575320263.169916,1514.28
1575320263.1785128,1521.02
1575320263.186273,1526.74
1575320263.199371,1532.61
1575320263.206924,1538.24
1575320263.215584,1542.93
1575320263.227488,1548.01
1575320263.235421,1551.73
1575320263.243861,1552.85
1575320263.2525032,1551.08
1575320263.2659578,1546.44
1575320263.272455,1541.18
1575320263.280787,1537.78
1575320263.293081,1534.28
1575320263.3013241,1531.01
1575320263.3093681,1529.05
1575320263.3179069,1527.85
1575320263.3299131,1528.16
1575320263.337868,1528.97
1575320263.347121,1530.1
1575320263.358321,1532.1
1575320263.366899,1534.73
1575320263.374681,1539.87
1575320263.383276,1546.86
1575320263.3953469,1552.67
1575320263.4033191,1559.42
1575320263.411971,1565.03
1575320263.423918,1568.07
1575320263.4336379,1569.86
1575320263.440243,1569.56
1575320263.449209,1567.75
1575320263.460769,1564.21
1575320263.468905,1561.78
1575320263.4773288,1561.66
1575320263.48954,1563.6
1575320263.4977112,1566.46
1575320263.505953,1570.83
1575320263.514108,1575.49
1575320263.526583,1579.5
1575320263.535178,1577.87
1575320263.5428932,1572.51
1575320263.555077,1562.83
1575320263.563453,1552.21
1575320263.57135,1544.97
1575320263.579867,1537.81
1575320263.591994,1530.19
1575320263.600659,1522.58
1575320263.6084769,1512.11
1575320263.6204128,1502.61
1575320263.62875,1497.12
1575320263.636833,1493.25
1575320263.645452,1490.47
1575320263.657502,1487.65
1575320263.6668642,1483.39
1575320263.6739619,1479.53
1575320263.6863549,1478.26
1575320263.69439,1479.69
1575320263.7023711,1481.68
1575320263.710895,1482.17
1575320263.72285,1482.25
1575320263.731174,1484.69
1575320263.739418,1491.46
1575320263.752104,1499.04
1575320263.759902,1508.01
1575320263.7685812,1514.05
1575320263.7766669,1517.65
1575320263.7885172,1522.97
1575320263.79681,1529.84
1575320263.804874,1535.23
1575320263.8178098,1538.47
1575320263.825417,1536.4
1575320263.834251,1532.28
1575320263.8420212,1528.56
1575320263.853927,1529.91
1575320263.862247,1534.31
1575320263.8703349,1540.64
1575320263.88321,1543.94
1575320263.89081,1542.99
1575320263.899594,1539.21
1575320263.907476,1536.67
1575320263.919429,1537.3
1575320263.927985,1540.54
1575320263.9362612,1542.53
1575320263.949225,1541.0
1575320263.956511,1536.43
1575320263.9653618,1533.45
1575320263.9729888,1533.31
1575320263.985434,1534.1
1575320263.9934661,1535.17
1575320264.002248,1536.09
1575320264.0137951,1537.09
1575320264.022051,1538.73
1575320264.030294,1539.64
1575320264.038312,1539.05
1575320264.0512152,1536.86
1575320264.059287,1534.81
1575320264.0678022,1534.2
1575320264.0793412,1534.66
1575320264.087391,1535.6
1575320264.095768,1536.32
1575320264.103822,1537.09
1575320264.1167512,1538.44
1575320264.124521,1540.19
1575320264.1332,1542.71
1575320264.145074,1544.57
1575320264.153043,1545.01
1575320264.161429,1544.14
1575320264.1693451,1543.58
1575320264.182326,1545.3
1575320264.190091,1549.93
1575320264.198775,1554.81
1575320264.2106419,1557.69
1575320264.2191381,1557.7
1575320264.226856,1555.48
1575320264.235428,1551.97
1575320264.247512,1549.72
1575320264.2553852,1547.79
1575320264.263742,1546.66
1575320264.276187,1547.18
1575320264.284538,1550.61
1575320264.2923892,1556.14
1575320264.300797,1560.48
1575320264.312869,1563.99
1575320264.3209379,1564.86
1575320264.329216,1565.03
1575320264.341465,1566.86
1575320264.350826,1571.61
1575320264.3577862,1576.71
1575320264.366976,1583.0
1575320264.378346,1589.0
1575320264.386503,1593.49
1575320264.395048,1597.81
1575320264.40282,1600.05
1575320264.416746,1601.52
1575320264.423421,1604.84
1575320264.432489,1609.63
1575320264.4438028,1613.38
1575320264.452667,1613.08
1575320264.4603672,1607.44
1575320264.469179,1598.4
1575320264.4808152,1592.44
1575320264.4890041,1589.56
1575320264.500555,1591.12
1575320264.509863,1593.86
1575320264.5181131,1597.3
1575320264.525986,1600.17
1575320264.5345101,1601.56
1575320264.5464818,1601.4
1575320264.554576,1597.61
1575320264.568438,1591.11
1575320264.57517,1581.06
1575320264.58374,1574.32
1575320264.59146,1574.25
1575320264.600231,1580.23
1575320264.612077,1588.31
1575320264.619892,1593.15
1575320264.6285162,1596.39
1575320264.640329,1597.38
1575320264.649183,1596.95
1575320264.6569338,1595.0
1575320264.666049,1593.01
1575320264.6773021,1591.83
1575320264.685458,1591.77
1575320264.693727,1591.64
1575320264.706081,1588.27
1575320264.714292,1582.13
1575320264.722485,1571.0
1575320264.7306502,1559.38
1575320264.7433212,1552.72
1575320264.7516491,1550.0
1575320264.75958,1552.0
1575320264.7715359,1553.69
1575320264.779934,1552.49
1575320264.7879438,1547.23
1575320264.796334,1541.06
1575320264.808626,1532.15
1575320264.817048,1524.31
1575320264.824745,1520.58
1575320264.836936,1520.46
1575320264.845522,1524.4
1575320264.853416,1528.98
1575320264.861771,1534.67
1575320264.873836,1537.97
1575320264.883007,1538.0
1575320264.890214,1534.91
1575320264.902499,1530.28
1575320264.910959,1527.36
1575320264.9190469,1528.09
1575320264.927392,1533.29
1575320264.939434,1541.29
1575320264.948363,1546.71
1575320264.955945,1549.09
1575320264.968541,1546.09
1575320264.9765859,1541.11
1575320264.985387,1534.69
1575320264.9932082,1531.57
1575320265.004977,1532.24
1575320265.0136251,1535.72
1575320265.021424,1539.99
1575320265.034206,1541.98
1575320265.041972,1540.64
1575320265.050653,1535.15
1575320265.058536,1529.61
1575320265.070583,1523.81
1575320265.0787442,1519.97
1575320265.0868301,1517.58
1575320265.0998569,1513.33
1575320265.107542,1507.28
1575320265.116288,1502.17
1575320265.123988,1496.34
1575320265.135979,1491.74
1575320265.1445272,1488.74
1575320265.1527538,1488.2
1575320265.164934,1490.55
1575320265.172992,1496.17
1575320265.1811788,1501.48
1575320265.189454,1506.36
1575320265.202089,1507.4
1575320265.209905,1505.58
1575320265.2186198,1500.54
1575320265.230477,1493.45
1575320265.2386382,1487.69
1575320265.246979,1482.37
1575320265.254854,1479.78
1575320265.2676532,1478.92
1575320265.275414,1479.25
1575320265.284182,1481.5
1575320265.296088,1484.7
1575320265.303932,1489.93
1575320265.312305,1495.56
1575320265.320328,1500.35
1575320265.333375,1505.88
1575320265.341035,1510.09
1575320265.351373,1513.94
1575320265.3613498,1521.45
1575320265.3697028,1531.37
1575320265.377717,1542.56
1575320265.386289,1552.27
1575320265.39969,1563.46
1575320265.406535,1570.29
1575320265.414903,1571.16
1575320265.427142,1568.26
1575320265.435682,1565.97
1575320265.4433742,1567.78
1575320265.4517162,1575.3
1575320265.463916,1584.95
1575320265.4720361,1589.57
1575320265.4804869,1589.05
1575320265.492324,1584.53
1575320265.501332,1581.37
1575320265.509025,1580.45
1575320265.517628,1582.83
1575320265.529449,1585.77
1575320265.537513,1588.51
1575320265.545772,1589.13
1575320265.557952,1588.86
1575320265.566716,1588.08
1575320265.574472,1585.82
1575320265.583575,1582.38
1575320265.5950668,1577.68
1575320265.6030662,1575.79
1575320265.611359,1577.03
1575320265.623499,1577.88
1575320265.632281,1577.12
1575320265.639991,1576.19
1575320265.649258,1576.43
1575320265.6603851,1578.17
1575320265.669014,1579.96
1575320265.676992,1579.73
1575320265.689127,1577.13
1575320265.699751,1573.93
1575320265.705562,1571.61
1575320265.713714,1569.98
1575320265.726063,1571.53
1575320265.734714,1574.44
1575320265.7427032,1578.08
1575320265.7545118,1580.62
1575320265.763016,1581.81
1575320265.771082,1581.28
1575320265.779119,1578.8
1575320265.79146,1576.1
1575320265.800464,1571.68
1575320265.807797,1565.98
1575320265.820013,1561.2
1575320265.8286011,1556.63
1575320265.836446,1553.58
1575320265.8448372,1550.77
1575320265.857074,1548.56
1575320265.8663921,1546.52
1575320265.873276,1545.77
1575320265.88611,1545.16
1575320265.893852,1542.51
1575320265.902476,1537.34
1575320265.9104729,1532.67
1575320265.9224808,1528.54
1575320265.930822,1525.98
1575320265.939052,1524.17
1575320265.951755,1521.84
1575320265.959718,1519.61
1575320265.968234,1517.43
1575320265.976181,1513.81
1575320265.987979,1511.2
1575320265.996489,1512.13
1575320266.0044649,1517.2
1575320266.0173829,1521.64
1575320266.025111,1522.97
1575320266.033775,1522.89
1575320266.0416052,1522.72
1575320266.053482,1523.47
1575320266.062089,1525.52
1575320266.069933,1528.94
1575320266.082783,1533.37
1575320266.090534,1536.6
1575320266.100014,1538.77
1575320266.106955,1539.21
1575320266.119027,1540.11
1575320266.127522,1542.86
1575320266.136367,1546.09
1575320266.148156,1548.14
1575320266.156111,1550.66
1575320266.164293,1554.45
1575320266.172506,1557.78
1575320266.1853068,1560.29
1575320266.192894,1560.95
1575320266.2015429,1561.53
1575320266.213612,1563.58
1575320266.221644,1566.56
1575320266.2297258,1567.14
1575320266.237828,1563.6
1575320266.251332,1557.09
1575320266.258394,1552.28
1575320266.267096,1548.93
1575320266.27898,1547.77
1575320266.2869709,1547.91
1575320266.295912,1548.54
1575320266.3033888,1548.59
1575320266.316461,1547.47
1575320266.3240168,1546.01
1575320266.3329878,1543.69
1575320266.3444748,1541.09
1575320266.353054,1539.94
1575320266.360932,1542.23
1575320266.369419,1548.14
1575320266.381286,1552.45
1575320266.389385,1554.13
1575320266.397782,1551.33
1575320266.4099998,1547.3
1575320266.418647,1542.62
1575320266.426749,1541.63
1575320266.435141,1544.49
1575320266.44693,1551.23
1575320266.454914,1558.58
1575320266.463557,1562.58
1575320266.47541,1562.95
1575320266.4842381,1559.44
1575320266.49212,1556.42
1575320266.500685,1555.24
1575320266.512359,1557.07
1575320266.520458,1558.36
1575320266.529024,1557.87
1575320266.540989,1556.49
1575320266.5498219,1557.02
1575320266.5576189,1559.42
1575320266.5668979,1564.17
1575320266.5780602,1567.92
1575320266.585993,1568.2
1575320266.5944262,1564.26
1575320266.606642,1556.68
1575320266.614805,1550.66
1575320266.623036,1546.53
1575320266.6311948,1546.45
1575320266.6435351,1547.35
1575320266.6521971,1547.1
1575320266.6598122,1543.27
1575320266.6721568,1537.18
1575320266.680436,1527.53
1575320266.688475,1519.43
1575320266.699283,1517.02
1575320266.709175,1521.45
1575320266.717736,1532.59
1575320266.725557,1543.87
1575320266.737531,1560.03
1575320266.745934,1578.67
1575320266.753956,1595.28
1575320266.7623081,1616.6
1575320266.7746198,1636.41
1575320266.7834802,1652.54
1575320266.7910872,1661.73
1575320266.803051,1667.62
1575320266.8115861,1665.67
1575320266.819496,1657.48
1575320266.82795,1639.44
1575320266.840199,1615.12
1575320266.849393,1593.83
1575320266.856659,1567.13
1575320266.8694289,1542.04
1575320266.876843,1524.39
1575320266.8860102,1506.06
1575320266.8933918,1490.98
1575320266.905492,1480.64
1575320266.913924,1469.86
1575320266.9218822,1462.19
1575320266.934742,1458.63
1575320266.942685,1456.8
1575320266.951363,1457.33
1575320266.958954,1458.82
1575320266.971091,1460.85
1575320266.979384,1462.94
1575320266.987514,1464.72
1575320267.00048,1466.24
1575320267.00801,1466.88
1575320267.017497,1467.78
1575320267.024558,1469.13
1575320267.036578,1470.76
1575320267.045224,1469.45
1575320267.053378,1465.96
1575320267.0658822,1461.09
1575320267.073673,1459.03
1575320267.082528,1459.85
1575320267.089908,1462.44
1575320267.102188,1464.65
1575320267.110441,1465.05
1575320267.119057,1462.98
1575320267.13106,1458.57
1575320267.139041,1455.32
1575320267.1472352,1454.8
1575320267.155585,1459.6
1575320267.168608,1466.22
1575320267.17647,1475.45
1575320267.184782,1483.66
1575320267.196488,1488.94
1575320267.2045188,1493.81
1575320267.2129312,1496.63
1575320267.220992,1498.14
1575320267.233623,1500.97
1575320267.241668,1504.53
1575320267.2502432,1507.67
1575320267.2622468,1509.64
1575320267.2700522,1512.27
1575320267.2786381,1515.34
1575320267.286467,1517.24
1575320267.2992792,1517.5
1575320267.307053,1514.89
1575320267.315983,1512.05
1575320267.3275409,1509.19
1575320267.3357482,1507.05
1575320267.344013,1505.28
1575320267.352907,1503.29
1575320267.364383,1501.95
1575320267.3725078,1500.89
1575320267.3807669,1499.62
1575320267.392864,1499.49
1575320267.402278,1500.69
1575320267.4096131,1503.07
1575320267.418381,1504.35
1575320267.4301171,1503.73
1575320267.4381702,1501.49
1575320267.4463968,1498.18
1575320267.458446,1496.05
1575320267.4674702,1495.11
1575320267.475104,1496.44
1575320267.483824,1499.34
1575320267.495847,1501.85
1575320267.50348,1504.25
1575320267.512064,1505.37
1575320267.524024,1506.49
1575320267.533322,1509.01
1575320267.540575,1512.24
1575320267.550037,1515.35
1575320267.561165,1520.28
1575320267.5697448,1525.07
1575320267.577536,1527.61
1575320267.5895228,1528.68
1575320267.597829,1527.6
1575320267.606106,1526.33
1575320267.6143382,1524.29
1575320267.6268532,1521.82
1575320267.635371,1519.68
1575320267.6430469,1518.94
1575320267.655227,1522.97
1575320267.663509,1528.99
1575320267.671548,1536.97
1575320267.679949,1541.82
1575320267.692207,1542.28
1575320267.7008991,1539.65
1575320267.708716,1537.34
1575320267.720556,1538.4
1575320267.729038,1542.32
1575320267.736979,1549.24
1575320267.745523,1553.8
1575320267.757621,1554.05
1575320267.766867,1550.8
1575320267.7740421,1546.02
1575320267.786177,1543.43
1575320267.794734,1544.11
1575320267.802939,1550.29
1575320267.8110101,1557.59
1575320267.8231769,1566.24
1575320267.831383,1572.52
1575320267.839678,1576.45
1575320267.852382,1580.49
1575320267.8601449,1583.64
1575320267.869369,1585.23
1575320267.8765109,1585.53
1575320267.888526,1584.07
1575320267.899852,1581.8
1575320267.904934,1578.09
1575320267.917855,1574.38
1575320267.925663,1572.14
1575320267.934453,1570.07
1575320267.9419892,1568.31
1575320267.9541109,1566.77
1575320267.962434,1565.02
1575320267.970464,1560.72
1575320267.983774,1553.93
1575320267.991223,1547.99
1575320267.9999921,1541.9
1575320268.0075798,1538.74
1575320268.0195541,1538.4
1575320268.0281441,1539.12
1575320268.036504,1540.48
1575320268.048907,1540.7
1575320268.056639,1534.24
1575320268.0655859,1511.32
1575320268.073053,1475.18
1575320268.085601,1404.61
1575320268.09373,1309.36
1575320268.1021981,1222.22
1575320268.114099,1109.21
1575320268.122207,996.77
1575320268.130361,908.64
1575320268.138452,824.15
1575320268.1468081,745.35
1575320268.154788,674.36
1575320268.16316,599.03
1575320268.171156,550.47
1575320268.179577,512.5
1575320268.1875699,484.87
1575320268.195849,466.79
1575320268.203995,456.79
1575320268.212406,452.29
1575320268.220347,452.23
1575320268.2289531,453.78
1575320268.236712,456.16
1575320268.245291,458.88
1575320268.253196,461.23
1575320268.261643,463.07
1575320268.26994,465.93
1575320268.277858,469.35
1575320268.2860281,473.18
1575320268.294357,475.87
1575320268.3029099,474.98
1575320268.310611,469.67
1575320268.318815,458.84
1575320268.327057,450.48
1575320268.3366,446.02
1575320268.3434482,447.22
1575320268.352045,453.49
1575320268.3600059,463.46
1575320268.3686268,477.15
1575320268.380241,486.84
1575320268.388255,494.79
1575320268.3965771,501.5
1575320268.404626,508.37
1575320268.412957,517.65
1575320268.421032,533.06
1575320268.429358,547.01
1575320268.437421,561.33
1575320268.44578,576.12
1575320268.4538088,591.18
1575320268.462385,606.48
1575320268.4701781,622.54
1575320268.4787421,643.48
1575320268.486589,660.79
1575320268.495023,678.51
1575320268.503094,696.87
1575320268.511412,715.9
1575320268.519368,735.64
1575320268.5278678,759.76
1575320268.536557,776.87
1575320268.544051,791.57
1575320268.552247,804.55
1575320268.560496,817.66
1575320268.569441,832.04
1575320268.576672,850.69
1575320268.585336,865.09
1575320268.593635,878.72
1575320268.6020842,891.88
1575320268.609716,905.03
1575320268.618558,918.19
1575320268.6262898,935.19
1575320268.635177,949.03
1575320268.6465778,962.47
1575320268.654521,973.99
1575320268.662771,982.87
1575320268.670868,989.88
1575320268.679172,995.58
1575320268.6873012,1001.58
1575320268.695955,1007.39
1575320268.707724,1017.26
1575320268.7165492,1028.9
1575320268.724389,1038.24
1575320268.733353,1048.79
1575320268.74486,1058.19
1575320268.752803,1065.42
1575320268.761274,1074.12
1575320268.7733061,1081.44
1575320268.781853,1086.35
1575320268.789909,1093.2
1575320268.798026,1100.97
1575320268.810278,1106.56
1575320268.818872,1112.4
1575320268.826821,1119.22
1575320268.8389308,1128.95
1575320268.8471968,1138.14
1575320268.855273,1149.92
1575320268.864044,1161.28
1575320268.875764,1170.04
1575320268.8845818,1180.35
1575320268.892191,1190.48
1575320268.9043462,1199.6
1575320268.912787,1211.92
1575320268.920886,1223.59
1575320268.929198,1231.59
1575320268.941407,1239.62
1575320268.950171,1246.81
1575320268.9579399,1252.68
1575320268.970253,1260.84
1575320268.9785569,1269.47
1575320268.98704,1275.83
1575320268.994663,1282.36
1575320269.0068228,1287.09
1575320269.015507,1289.74
1575320269.023474,1292.34
1575320269.035771,1294.87
1575320269.043919,1297.31
1575320269.0525389,1300.51
1575320269.060031,1302.74
1575320269.072457,1302.74
1575320269.08082,1300.92
1575320269.088792,1297.6
1575320269.099715,1294.79
1575320269.109366,1293.9
1575320269.118013,1296.07
1575320269.125591,1303.27
1575320269.1378188,1311.99
1575320269.146353,1322.95
1575320269.154303,1331.69
1575320269.162588,1337.04
1575320269.175018,1341.8
1575320269.1840608,1344.57
1575320269.191412,1345.91
1575320269.203368,1347.27
1575320269.212053,1347.56
1575320269.219897,1346.05
1575320269.228302,1342.36
1575320269.240297,1337.49
1575320269.249556,1333.29
1575320269.256874,1329.21
1575320269.26911,1328.02
1575320269.2773938,1329.23
1575320269.285675,1331.08
1575320269.293664,1329.8
1575320269.3059509,1325.11
1575320269.314193,1320.71
1575320269.3222022,1315.94
1575320269.33499,1313.75
1575320269.343096,1314.54
1575320269.3514922,1317.1
1575320269.359355,1318.36
1575320269.371403,1318.43
1575320269.3797078,1318.4
1575320269.3878741,1319.31
1575320269.401045,1321.56
1575320269.408257,1327.71
1575320269.417197,1336.86
1575320269.424792,1343.82
1575320269.436855,1351.73
1575320269.4455638,1359.28
1575320269.45361,1364.37
1575320269.466496,1369.48
1575320269.473999,1373.82
1575320269.482807,1376.56
1575320269.490458,1378.86
1575320269.502448,1380.91
1575320269.510758,1383.27
1575320269.519246,1387.23
1575320269.531323,1392.02
1575320269.5394628,1397.79
1575320269.547691,1402.72
1575320269.555682,1407.05
1575320269.5686452,1409.07
1575320269.576192,1410.46
1575320269.5849469,1413.71
1575320269.5968142,1419.19
1575320269.604924,1424.38
1575320269.613238,1430.79
1575320269.621266,1437.1
1575320269.634201,1442.18
1575320269.6420212,1447.86
1575320269.650746,1451.77
1575320269.662632,1452.93
1575320269.670411,1452.0
1575320269.6789298,1449.56
1575320269.6867352,1448.28
1575320269.700323,1449.84
1575320269.707541,1453.97
1575320269.716144,1456.74
1575320269.7278562,1457.38
1575320269.736376,1455.92
1575320269.74427,1455.34
1575320269.7527628,1456.74
1575320269.764885,1458.84
1575320269.772955,1459.17
1575320269.781141,1458.79
1575320269.7934122,1458.94
1575320269.80237,1459.57
1575320269.809927,1460.43
1575320269.818474,1464.19
1575320269.830435,1473.54
1575320269.838356,1484.81
1575320269.8467898,1499.45
1575320269.858856,1508.84
1575320269.867819,1509.53
1575320269.8751638,1503.18
1575320269.884608,1493.28
1575320269.896479,1486.33
1575320269.904055,1482.53
1575320269.912278,1483.59
1575320269.9245281,1485.89
1575320269.9334028,1488.43
1575320269.9408371,1488.81
1575320269.9499588,1487.24
1575320269.961302,1484.82
1575320269.9693818,1483.54
1575320269.977797,1483.85
1575320269.989995,1486.5
1575320269.9981399,1491.15
1575320270.006508,1496.04
1575320270.014583,1499.62
1575320270.027128,1502.96
1575320270.035504,1504.88
1575320270.043265,1505.15
1575320270.055539,1504.49
1575320270.0638878,1505.19
1575320270.071851,1509.4
1575320270.080248,1518.23
1575320270.0924869,1526.22
1575320270.100984,1529.94
1575320270.1090188,1532.24
1575320270.120953,1534.56
1575320270.129266,1536.79
1575320270.137357,1540.17
1575320270.145982,1544.46
1575320270.157917,1547.45
1575320270.166925,1548.08
1575320270.17438,1544.69
1575320270.18648,1540.74
1575320270.194956,1537.65
1575320270.203469,1539.76
1575320270.211286,1543.82
1575320270.223456,1547.3
1575320270.2316658,1547.21
1575320270.239839,1546.24
1575320270.2524931,1546.21
1575320270.26074,1546.38
1575320270.2691772,1545.7
1575320270.2767308,1544.84
1575320270.289,1543.79
1575320270.301197,1542.93
1575320270.305221,1541.98
1575320270.318072,1540.19
1575320270.326114,1539.38
1575320270.3346932,1540.91
1575320270.342349,1545.22
1575320270.3544378,1550.34
1575320270.362985,1554.1
1575320270.3707678,1557.94
1575320270.383739,1561.7
1575320270.391242,1564.88
1575320270.401512,1569.23
1575320270.407688,1573.79
1575320270.419915,1577.02
1575320270.4285061,1579.82
1575320270.4367201,1580.82
1575320270.4491022,1579.85
1575320270.45695,1576.99
1575320270.465568,1574.01
1575320270.473373,1571.95
1575320270.486302,1570.72
1575320270.4938931,1568.57
1575320270.502811,1564.95
1575320270.514352,1561.43
1575320270.522336,1556.08
1575320270.5307589,1550.05
1575320270.538781,1546.02
1575320270.551556,1544.19
1575320270.559618,1545.78
1575320270.568244,1548.67
1575320270.579787,1553.01
1575320270.587851,1557.31
1575320270.596304,1560.29
1575320270.6042671,1562.77
1575320270.617242,1562.58
1575320270.624979,1559.36
1575320270.633999,1552.33
1575320270.645462,1545.16
1575320270.6534002,1541.46
1575320270.662071,1540.16
1575320270.669965,1539.88
1575320270.682883,1539.44
1575320270.690432,1538.59
1575320270.698951,1536.52
1575320270.711015,1532.89
1575320270.719666,1530.54
1575320270.727322,1529.46
1575320270.735316,1531.68
1575320270.747854,1535.72
1575320270.7559721,1541.0
1575320270.764385,1544.45
1575320270.7762492,1545.59
1575320270.7851,1546.05
1575320270.7930298,1546.75
1575320270.8015518,1547.27
1575320270.813366,1546.42
1575320270.8213902,1541.65
1575320270.829793,1534.27
1575320270.84179,1523.99
1575320270.850507,1517.71
1575320270.858801,1516.51
1575320270.8672798,1517.18
1575320270.878826,1516.29
1575320270.886994,1513.7
1575320270.895176,1509.02
1575320270.9073632,1505.33
1575320270.916492,1504.41
1575320270.9239218,1506.05
1575320270.932998,1510.7
1575320270.944416,1516.75
1575320270.952876,1520.94
1575320270.960747,1525.34
1575320270.973023,1530.84
1575320270.981267,1536.77
1575320270.9894662,1544.76
1575320270.9977112,1551.18
1575320271.010019,1554.24
1575320271.018579,1555.69
1575320271.0266528,1555.97
1575320271.038538,1556.51
1575320271.0468621,1557.42
1575320271.054883,1557.72
1575320271.063152,1557.09
1575320271.075569,1556.81
1575320271.084364,1559.07
1575320271.091933,1562.87
1575320271.103911,1567.99
1575320271.1123068,1571.84
1575320271.120329,1574.12
1575320271.1289248,1575.86
1575320271.141035,1576.47
1575320271.14972,1576.11
1575320271.157345,1574.23
1575320271.1695209,1570.49
1575320271.177953,1565.44
1575320271.18629,1562.26
1575320271.194143,1560.45
1575320271.2065349,1559.41
1575320271.214696,1557.58
1575320271.222911,1553.31
1575320271.235797,1547.28
1575320271.243482,1541.79
1575320271.2522151,1535.08
1575320271.2599192,1529.3
1575320271.271894,1525.6
1575320271.280329,1522.07
1575320271.288376,1520.45
1575320271.301041,1521.28
1575320271.309199,1524.69
1575320271.317559,1529.52
1575320271.3254662,1533.3
1575320271.337565,1537.81
1575320271.345988,1541.68
1575320271.353827,1543.68
1575320271.3677151,1544.14
1575320271.3744252,1542.4
1575320271.382566,1540.14
1575320271.390707,1537.74
1575320271.403033,1537.27
1575320271.4113111,1538.69
1575320271.4194298,1540.32
1575320271.431932,1540.85
1575320271.439936,1538.03
1575320271.448189,1533.96
1575320271.456491,1528.17
1575320271.469026,1524.92
1575320271.4768581,1525.77
1575320271.485505,1530.51
1575320271.500798,1535.66
1575320271.5055308,1537.48
1575320271.513737,1535.98
1575320271.521787,1531.78
1575320271.5347672,1527.55
1575320271.542569,1522.19
1575320271.5513191,1518.36
1575320271.562782,1516.56
1575320271.570912,1516.09
1575320271.579207,1518.93
1575320271.5872939,1523.37
1575320271.600505,1529.22
1575320271.607798,1532.82
1575320271.617482,1533.47
1575320271.6286788,1531.76
1575320271.636891,1529.01
1575320271.644922,1526.71
1575320271.652863,1525.71
1575320271.66834,1525.81
1575320271.6733692,1527.06
1575320271.681768,1528.6
1575320271.694008,1531.11
1575320271.702719,1533.59
1575320271.71014,1535.15
1575320271.718824,1536.72
1575320271.730907,1538.01
1575320271.73893,1538.85
1575320271.7474618,1539.73
1575320271.7593138,1539.93
1575320271.768157,1538.82
1575320271.776201,1535.68
1575320271.784891,1532.18
1575320271.7963781,1530.0
1575320271.8044999,1529.4
1575320271.812795,1531.71
1575320271.825067,1535.26
1575320271.8338292,1540.67
1575320271.841409,1544.7
1575320271.8502789,1546.41
1575320271.861865,1547.14
1575320271.869916,1547.42
1575320271.8783722,1547.63
1575320271.890404,1547.36
1575320271.899435,1546.81
1575320271.9067829,1546.59
1575320271.915138,1547.09
1575320271.927444,1547.92
1575320271.93595,1548.21
1575320271.943799,1548.02
1575320271.9561028,1547.84
1575320271.96448,1546.67
1575320271.972362,1544.72
1575320271.980771,1542.42
1575320271.993222,1541.3
1575320272.002485,1541.69
1575320272.009448,1543.47
1575320272.021523,1545.34
1575320272.029838,1546.5
1575320272.0379038,1546.23
1575320272.0462239,1544.55
1575320272.05851,1543.75
1575320272.0672262,1543.82
1575320272.074913,1544.87
1575320272.087021,1546.58
1575320272.095623,1549.65
1575320272.103452,1552.87
1575320272.1119318,1554.21
1575320272.124074,1553.26
1575320272.132928,1551.24
1575320272.1404102,1549.41
1575320272.152529,1548.02
1575320272.160942,1546.95
1575320272.168998,1547.73
1575320272.177428,1550.01
1575320272.1898031,1553.81
1575320272.197786,1556.51
1575320272.2058492,1557.66
1575320272.218674,1557.97
1575320272.226879,1557.35
1575320272.2353852,1556.31
1575320272.24298,1554.7
1575320272.255029,1553.09
1575320272.263396,1552.27
1575320272.271428,1552.37
1575320272.28431,1553.93
1575320272.292091,1555.34
1575320272.3006039,1556.02
1575320272.3084219,1554.41
1575320272.320472,1552.58
1575320272.329175,1551.92
1575320272.3369868,1554.44
1575320272.349876,1557.74
1575320272.3575602,1558.72
1575320272.366606,1557.31
1575320272.3739352,1553.36
1575320272.3860722,1549.28
1575320272.394303,1545.43
1575320272.402708,1544.99
1575320272.415364,1546.54
1575320272.423054,1548.23
1575320272.431317,1547.26
1575320272.439502,1544.3
1575320272.4521642,1539.93
1575320272.460184,1538.11
1575320272.468456,1539.89
1575320272.480491,1544.77
1575320272.488443,1550.52
1575320272.496872,1554.65
1575320272.5050318,1558.71
1575320272.517781,1560.23
1575320272.525653,1559.08
1575320272.534312,1554.87
1575320272.54619,1549.48
1575320272.5540411,1546.14
1575320272.562571,1545.03
1575320272.570352,1546.72
1575320272.5841432,1548.0
1575320272.591052,1547.22
1575320272.5998871,1544.45
1575320272.611489,1538.61
1575320272.6196322,1531.17
1575320272.6278322,1519.64
1575320272.6361542,1509.33
1575320272.648756,1504.32
1575320272.6565819,1501.93
1575320272.664706,1502.35
1575320272.677065,1503.84
1575320272.685668,1507.16
1575320272.693372,1512.96
1575320272.7021482,1519.59
1575320272.714016,1529.22
1575320272.721998,1538.56
1575320272.730291,1545.12
1575320272.742336,1551.72
1575320272.751286,1555.63
1575320272.759352,1556.67
1575320272.767392,1555.84
1575320272.779385,1553.09
1575320272.7874188,1550.16
1575320272.796191,1546.29
1575320272.808075,1542.26
1575320272.817009,1537.32
1575320272.824495,1532.93
1575320272.833398,1527.92
1575320272.844843,1524.39
1575320272.8529658,1523.07
1575320272.861911,1523.06
1575320272.8737652,1523.37
1575320272.8817668,1522.89
1575320272.8898308,1521.94
1575320272.899733,1522.02
1575320272.910315,1523.18
1575320272.9190679,1525.27
1575320272.9270809,1527.74
1575320272.939039,1530.6
1575320272.947413,1535.52
1575320272.9554508,1541.54
1575320272.963922,1546.68
1575320272.9763231,1553.83
1575320272.984908,1560.94
1575320272.992453,1565.99
1575320273.004508,1570.4
1575320273.012827,1571.34
1575320273.0209222,1568.93
1575320273.029553,1562.87
1575320273.041555,1555.3
1575320273.0506072,1548.36
1575320273.057962,1544.38
1575320273.0700438,1540.96
1575320273.0786839,1538.74
1575320273.086634,1537.67
1575320273.094951,1536.6
1575320273.10717,1535.77
1575320273.115812,1534.81
1575320273.123492,1532.69
1575320273.135593,1529.86
1575320273.143924,1528.36
1575320273.1526961,1528.89
1575320273.1602418,1531.96
1575320273.172607,1535.79
1575320273.1807392,1541.16
1575320273.188973,1545.46
1575320273.197045,1547.38
1575320273.209549,1547.78
1575320273.218395,1547.11
1575320273.225781,1546.06
1575320273.2380831,1544.44
1575320273.24618,1543.43
1575320273.254548,1543.54
1575320273.262542,1543.15
1575320273.275031,1539.47
1575320273.283393,1532.24
1575320273.291254,1525.04
1575320273.30367,1516.38
1575320273.311733,1509.73
1575320273.320095,1505.79
1575320273.328528,1501.78
1575320273.340422,1498.64
1575320273.348727,1498.05
1575320273.357206,1498.95
1575320273.371177,1500.48
1575320273.377314,1502.37
1575320273.386472,1505.82
1575320273.393727,1509.65
1575320273.4063659,1511.81
1575320273.414312,1512.29
1575320273.422851,1511.16
1575320273.43538,1509.61
1575320273.443211,1506.78
1575320273.4520361,1504.34
1575320273.459198,1504.13
1575320273.4715111,1506.97
1575320273.479788,1511.54
1575320273.488023,1514.17
1575320273.50014,1513.81
1575320273.508673,1511.21
1575320273.5167758,1510.16
1575320273.5252259,1511.43
1575320273.537144,1514.54
1575320273.545391,1516.11
1575320273.554045,1514.71
1575320273.5657952,1509.92
1575320273.573983,1503.91
1575320273.58223,1500.3
1575320273.5905752,1497.35
1575320273.603041,1495.83
1575320273.610825,1496.74
1575320273.619464,1500.56
1575320273.631223,1505.0
1575320273.6396291,1506.79
1575320273.647656,1505.15
1575320273.6558049,1500.71
1575320273.669003,1496.97
1575320273.676359,1493.2
1575320273.685647,1489.94
1575320273.696888,1486.97
1575320273.70495,1483.56
1575320273.71342,1482.59
1575320273.722019,1483.75
1575320273.734646,1485.34
1575320273.74227,1485.13
1575320273.750402,1484.24
1575320273.7622662,1485.28
1575320273.770912,1489.03
1575320273.778721,1493.69
1575320273.787273,1497.11
1575320273.799328,1501.65
1575320273.8074071,1508.28
1575320273.8157141,1515.25
1575320273.828037,1523.57
1575320273.8365262,1527.72
1575320273.844254,1526.38
1575320273.85308,1520.47
1575320273.8654258,1513.81
1575320273.873312,1509.79
1575320273.881205,1507.41
1575320273.893461,1506.46
1575320273.9024498,1505.45
1575320273.909877,1505.1
1575320273.9191868,1507.8
1575320273.930312,1511.95
1575320273.9386199,1517.25
1575320273.9468439,1520.17
1575320273.958854,1520.96
1575320273.968353,1521.31
1575320273.975326,1521.77
1575320273.985253,1522.78
1575320273.996068,1524.25
1575320274.004477,1527.6
1575320274.012288,1532.19
1575320274.02444,1535.54
1575320274.034336,1537.99
1575320274.0408058,1538.87
1575320274.049115,1538.97
1575320274.061461,1538.43
1575320274.0701451,1536.96
1575320274.077842,1536.04
1575320274.09011,1535.5
1575320274.098303,1535.06
1575320274.1064692,1534.19
1575320274.11469,1532.82
1575320274.126899,1532.08
1575320274.135801,1531.94
1575320274.143275,1531.89
1575320274.155554,1532.4
1575320274.163806,1533.1
1575320274.171904,1531.69
1575320274.1802938,1526.63
1575320274.192435,1520.87
1575320274.2019389,1513.78
1575320274.2089229,1509.69
1575320274.2212732,1509.71
1575320274.229276,1511.76
1575320274.237508,1515.53
1575320274.245773,1518.79
1575320274.257973,1521.0
1575320274.267659,1523.41
1575320274.274494,1524.45
1575320274.2868211,1524.45
1575320274.2947998,1524.67
1575320274.303436,1526.9
1575320274.311266,1530.24
1575320274.32346,1535.0
1575320274.331739,1538.92
1575320274.3399491,1541.43
1575320274.352918,1544.78
1575320274.3605099,1548.12
1575320274.371197,1549.54
1575320274.3768268,1548.87
1575320274.389125,1544.66
1575320274.397321,1538.3
1575320274.406355,1528.61
1575320274.4193852,1520.83
1575320274.4258869,1517.44
1575320274.43429,1515.47
1575320274.442677,1514.62
1575320274.4546912,1514.85
1575320274.4627159,1516.23
1575320274.471467,1519.94
1575320274.4833379,1525.23
1575320274.491752,1529.7
1575320274.50398,1534.68
1575320274.508084,1538.68
1575320274.520711,1541.33
1575320274.5282938,1543.52
1575320274.5371132,1543.65
1575320274.5504289,1542.9
1575320274.5572338,1540.61
1575320274.565609,1537.32
1575320274.5735948,1535.76
1575320274.586431,1537.06
1575320274.5938141,1540.77
1575320274.602638,1543.76
1575320274.614305,1547.26
1575320274.622607,1550.55
1575320274.630801,1552.7
1575320274.638922,1553.91
1575320274.6516302,1553.61
1575320274.659986,1552.83
1575320274.667962,1552.16
1575320274.679977,1552.01
1575320274.688094,1551.59
1575320274.699212,1550.17
1575320274.704618,1546.82
1575320274.717205,1542.09
1575320274.725077,1538.37
1575320274.733811,1534.93
1575320274.745816,1533.34
1575320274.753665,1533.48
1575320274.762075,1535.08
1575320274.7699368,1536.66
1575320274.7828648,1537.0
1575320274.7907,1535.46
1575320274.800004,1532.19
1575320274.8112729,1529.58
1575320274.8198001,1527.93
1575320274.8274329,1529.9
1575320274.8358479,1534.41
1575320274.848014,1540.55
1575320274.856016,1543.66
1575320274.8650858,1542.9
1575320274.876468,1538.95
1575320274.8852322,1534.12
1575320274.892883,1530.54
1575320274.902626,1527.13
1575320274.9133592,1525.82
1575320274.9215841,1526.89
1575320274.929831,1528.95
1575320274.942091,1531.65
1575320274.950778,1533.89
1575320274.958615,1535.4
1575320274.9673269,1536.63
1575320274.979189,1537.01
1575320274.98702,1536.41
1575320274.995585,1534.88
1575320275.007471,1533.86
1575320275.016741,1533.66
1575320275.024058,1533.26
1575320275.033521,1532.18
1575320275.0446458,1531.15
1575320275.052578,1531.42
1575320275.061036,1534.19
1575320275.0730429,1537.52
1575320275.081374,1540.02
1575320275.0896268,1539.49
1575320275.100436,1538.17
1575320275.110174,1537.67
1575320275.118793,1538.71
1575320275.1267982,1539.35
1575320275.138667,1539.06
1575320275.146958,1537.32
1575320275.154971,1534.7
1575320275.163336,1533.32
1575320275.1755981,1533.82
1575320275.184085,1536.74
1575320275.192209,1539.59
1575320275.204127,1541.38
1575320275.2126489,1539.71
1575320275.2204869,1537.23
1575320275.229134,1534.25
1575320275.241143,1532.0
1575320275.249841,1530.55
1575320275.257597,1527.96
1575320275.270219,1523.84
1575320275.278029,1519.8
1575320275.286069,1514.8
1575320275.294474,1509.65
1575320275.306666,1505.21
1575320275.314817,1500.14
1575320275.323172,1496.81
1575320275.335714,1495.64
1575320275.3436859,1495.76
1575320275.352475,1496.4
1575320275.360214,1497.1
1575320275.372297,1498.71
1575320275.380557,1501.76
1575320275.38877,1505.92
1575320275.401649,1509.57
1575320275.409003,1513.34
1575320275.417844,1515.72
1575320275.425506,1517.03
1575320275.437563,1518.73
1575320275.446225,1520.98
1575320275.454051,1522.67
1575320275.466898,1522.74
1575320275.474614,1519.55
1575320275.483453,1515.38
1575320275.4911308,1509.68
1575320275.503123,1503.45
1575320275.511643,1498.19
1575320275.519862,1492.06
1575320275.532001,1486.76
1575320275.5401669,1483.23
1575320275.548379,1479.56
1575320275.556588,1476.94
1575320275.569291,1476.23
1575320275.577357,1476.85
1575320275.585671,1478.22
1575320275.597625,1479.71
1575320275.605598,1481.85
1575320275.613975,1484.72
1575320275.621985,1489.58
1575320275.634968,1494.61
1575320275.642797,1501.4
1575320275.651944,1506.64
1575320275.663102,1508.95
1575320275.671222,1509.88
1575320275.679629,1509.0
1575320275.6874602,1507.99
1575320275.700501,1507.79
1575320275.7081778,1508.27
1575320275.716467,1509.29
1575320275.728686,1512.31
1575320275.736593,1515.89
1575320275.745078,1517.78
1575320275.752995,1518.55
1575320275.765434,1517.36
1575320275.773643,1514.36
1575320275.78242,1508.23
1575320275.794097,1501.62
1575320275.802952,1498.5
1575320275.8103092,1498.07
1575320275.818936,1499.0
1575320275.831083,1499.3
1575320275.839026,1499.03
1575320275.847527,1499.74
1575320275.859469,1502.35
1575320275.8689752,1504.49
1575320275.8759098,1505.76
1575320275.884744,1505.34
1575320275.896371,1504.9
1575320275.904556,1505.17
1575320275.912878,1506.12
1575320275.925133,1507.99
1575320275.9342332,1512.21
1575320275.9418461,1514.98
1575320275.9509592,1513.83
1575320275.962104,1513.79
1575320275.970173,1531.7
1575320275.978626,1569.19
1575320275.990623,1647.6
1575320275.9989052,1753.94
1575320276.0071082,1850.65
1575320276.015319,1975.68
1575320276.027701,2098.15
1575320276.035857,2192.04
1575320276.0441191,2303.05
1575320276.056129,2403.32
1575320276.0644858,2471.47
1575320276.072618,2537.12
1575320276.0808609,2582.69
1575320276.0934458,2614.16
1575320276.1018748,2632.06
1575320276.1095731,2646.97
1575320276.121581,2654.91
1575320276.130059,2657.03
1575320276.1381278,2655.35
1575320276.146375,2649.65
1575320276.158725,2642.59
1575320276.1674612,2629.3
1575320276.175054,2611.08
1575320276.187226,2594.26
1575320276.1956291,2570.63
1575320276.2035358,2544.2
1575320276.2120771,2523.17
1575320276.224233,2503.88
1575320276.233145,2496.8
1575320276.2406242,2499.63
1575320276.2532952,2509.11
1575320276.260874,2517.41
1575320276.2693691,2519.57
1575320276.27752,2515.76
1575320276.2897122,2506.6
1575320276.297942,2497.37
1575320276.306093,2484.59
1575320276.318662,2470.29
1575320276.326677,2454.07
1575320276.3353238,2440.05
1575320276.343097,2421.95
1575320276.355304,2402.83
1575320276.363335,2386.51
1575320276.3718889,2366.35
1575320276.384386,2348.45
1575320276.392009,2336.39
1575320276.4010959,2322.35
1575320276.408406,2307.16
1575320276.420637,2293.5
1575320276.429193,2275.51
1575320276.437046,2258.12
1575320276.4501162,2245.42
1575320276.457719,2229.54
1575320276.4669771,2212.12
1575320276.474035,2197.0
1575320276.486272,2178.59
1575320276.494694,2162.61
1575320276.503221,2151.73
1575320276.5149498,2138.74
1575320276.523247,2124.37
1575320276.5313,2110.49
1575320276.539658,2091.54
1575320276.552279,2074.73
1575320276.5603662,2062.43
1575320276.568873,2055.05
1575320276.5806332,2047.35
1575320276.588664,2039.19
1575320276.597176,2031.44
1575320276.605029,2020.19
1575320276.6180558,2007.21
1575320276.625817,1996.64
1575320276.634738,1985.97
1575320276.6463518,1977.93
1575320276.6542249,1971.81
1575320276.662858,1962.66
1575320276.670625,1949.65
1575320276.68369,1936.33
1575320276.691235,1917.99
1575320276.69945,1900.25
1575320276.711703,1888.26
1575320276.720282,1877.01
1575320276.7282019,1868.89
1575320276.7367911,1863.25
1575320276.7484071,1855.75
1575320276.756713,1848.59
1575320276.76488,1844.3
1575320276.777073,1840.44
1575320276.785813,1837.01
1575320276.793706,1832.69
1575320276.8028328,1829.02
1575320276.814177,1826.56
1575320276.822112,1827.21
1575320276.830606,1828.6
1575320276.842546,1827.17
1575320276.851252,1818.02
1575320276.85917,1804.08
1575320276.8678389,1780.74
1575320276.879467,1757.86
1575320276.887687,1745.96
1575320276.895925,1742.5
1575320276.908181,1748.15
1575320276.917127,1753.79
1575320276.9244642,1757.4
1575320276.933664,1756.57
1575320276.9452958,1754.37
1575320276.953276,1751.82
1575320276.9643369,1749.03
1575320276.9736269,1745.98
1575320276.98193,1741.16
1575320276.990002,1735.54
1575320276.9985752,1730.43
1575320277.010628,1721.96
1575320277.0193632,1710.7
1575320277.027151,1699.09
1575320277.0391731,1690.36
1575320277.047767,1678.87
1575320277.05559,1664.13
1575320277.064042,1649.31
1575320277.076252,1629.84
1575320277.0849001,1614.53
1575320277.092855,1607.6
1575320277.104666,1603.99
1575320277.1131442,1603.46
1575320277.1212459,1605.19
1575320277.129735,1612.84
1575320277.141752,1627.27
1575320277.150348,1641.05
1575320277.158231,1656.45
1575320277.1703029,1665.99
1575320277.178702,1667.41
1575320277.186635,1660.91
1575320277.195088,1646.75
1575320277.207402,1634.17
1575320277.216196,1622.72
1575320277.2236722,1618.95
1575320277.2361212,1620.79
1575320277.244052,1626.79
1575320277.252715,1633.99
1575320277.260598,1638.95
1575320277.2726212,1639.2
1575320277.281136,1632.91
1575320277.289066,1621.07
1575320277.301664,1611.4
1575320277.3099468,1602.89
1575320277.318443,1599.1
1575320277.3262239,1597.6
1575320277.338135,1594.46
1575320277.346564,1588.59
1575320277.3546,1582.06
1575320277.367295,1572.87
1575320277.375226,1564.16
1575320277.383931,1558.43
1575320277.39155,1553.92
1575320277.403899,1552.71
1575320277.4119911,1554.55
1575320277.4202182,1560.14
1575320277.428534,1565.5
1575320277.440862,1567.85
1575320277.449933,1571.19
1575320277.457176,1579.6
1575320277.4694881,1589.58
1575320277.4775732,1601.38
1575320277.4861598,1608.23
1575320277.4939258,1607.7
1575320277.506346,1603.2
1575320277.514529,1596.94
1575320277.5225532,1593.71
1575320277.5352771,1594.09
1575320277.5435278,1596.67
1575320277.5517912,1599.64
1575320277.559735,1601.27
1575320277.5717492,1601.31
1575320277.580075,1598.29
1575320277.588114,1595.47
1575320277.6010182,1595.08
1575320277.608841,1600.44
1575320277.617813,1607.88
1575320277.6250722,1618.15
1575320277.6371572,1626.41
1575320277.6457112,1629.96
1575320277.653555,1629.51
1575320277.667083,1624.31
1575320277.674304,1617.39
1575320277.683987,1606.8
1575320277.690627,1596.01
1575320277.702772,1589.28
1575320277.711067,1585.5
1575320277.719317,1586.89
1575320277.731665,1593.27
1575320277.739729,1601.49
1575320277.748137,1612.79
1575320277.7560692,1620.56
1575320277.768855,1621.79
1575320277.776829,1617.97
1575320277.7853281,1611.41
1575320277.797191,1606.06
1575320277.805154,1600.89
1575320277.813517,1598.06
1575320277.8215091,1597.32
1575320277.834293,1597.71
1575320277.842185,1598.45
1575320277.8509362,1598.29
1575320277.862935,1597.0
1575320277.870732,1594.68
1575320277.878873,1592.25
1575320277.88706,1588.6
1575320277.900192,1583.65
1575320277.907553,1578.66
1575320277.9172559,1572.13
1575320277.928201,1566.6
1575320277.93619,1562.31
1575320277.944633,1556.8
1575320277.952707,1552.75
1575320277.965218,1551.07
1575320277.973155,1549.79
1575320277.9815428,1545.44
1575320277.993675,1537.62
1575320278.0030222,1530.36
1575320278.010192,1521.42
1575320278.01888,1513.72
1575320278.030709,1509.02
1575320278.038688,1505.82
1575320278.047201,1504.67
1575320278.0590641,1503.24
1575320278.067656,1500.11
1575320278.075839,1496.38
1575320278.084983,1493.0
1575320278.096855,1488.94
1575320278.1042602,1486.57
1575320278.112792,1486.62
1575320278.1247869,1489.46
1575320278.133785,1495.19
1575320278.141149,1500.86
1575320278.150104,1508.66
1575320278.161644,1516.02
1575320278.169687,1520.47
1575320278.1781409,1523.63
1575320278.1901681,1524.64
1575320278.1984158,1524.56
1575320278.2067242,1524.26
1575320278.214955,1523.51
1575320278.2272341,1521.18
1575320278.235819,1518.46
1575320278.2437608,1515.33
1575320278.2556632,1513.16
1575320278.264182,1511.32
1575320278.2721322,1509.14
1575320278.2805681,1508.66
1575320278.292727,1509.57
1575320278.3011441,1511.17
1575320278.3093572,1512.33
1575320278.3212202,1513.73
1575320278.329767,1515.73
1575320278.3376179,1517.06
1575320278.3462741,1518.46
1575320278.358229,1522.2
1575320278.367518,1527.06
1575320278.374899,1530.13
1575320278.386732,1532.73
1575320278.395208,1534.23
1575320278.404265,1534.24
1575320278.411392,1533.16
1575320278.423695,1532.0
1575320278.43195,1530.71
1575320278.44006,1530.15
1575320278.452898,1531.13
1575320278.460673,1533.65
1575320278.469481,1535.33
1575320278.47695,1534.96
1575320278.489332,1532.07
1575320278.497751,1529.72
1575320278.5056262,1529.35
1575320278.518443,1532.67
1575320278.526411,1536.22
1575320278.534747,1538.29
1575320278.542903,1536.87
1575320278.554655,1533.94
1575320278.5630772,1530.67
1575320278.571092,1530.56
1575320278.585024,1533.37
1575320278.591598,1538.88
1575320278.6004548,1543.27
1575320278.60818,1545.15
1575320278.620745,1546.73
1575320278.6286552,1549.17
1575320278.636876,1551.0
1575320278.6491818,1550.94
1575320278.657335,1548.34
1575320278.667403,1544.98
1575320278.673728,1543.67
1575320278.686253,1544.4
1575320278.694216,1545.68
1575320278.7028391,1545.61
1575320278.714644,1543.5
1575320278.722667,1539.96
1575320278.7311208,1536.96
1575320278.739087,1533.63
1575320278.7519429,1531.59
1575320278.759816,1530.59
1575320278.7684832,1528.54
1575320278.780048,1525.37
1575320278.788146,1522.35
1575320278.796702,1517.64
1575320278.804684,1510.99
1575320278.817423,1504.67
1575320278.8252218,1498.72
1575320278.834014,1497.98
1575320278.8458052,1499.94
1575320278.8536892,1501.51
1575320278.8621938,1500.31
1575320278.8702059,1499.13
1575320278.884107,1500.33
1575320278.890796,1504.71
1575320278.8989172,1508.49
1575320278.911108,1508.54
1575320278.920191,1505.41
1575320278.927558,1499.94
1575320278.936367,1494.2
1575320278.948183,1485.45
1575320278.9563231,1476.68
1575320278.964583,1471.78
1575320278.976701,1469.12
1575320278.9854562,1469.43
1575320278.993414,1471.99
1575320279.001958,1478.77
1575320279.013632,1488.38
1575320279.0216472,1496.27
1575320279.030097,1504.11
1575320279.0421948,1508.92
1575320279.051432,1510.63
1575320279.0588312,1509.84
1575320279.0675578,1505.76
1575320279.079233,1500.51
1575320279.087318,1493.91
1575320279.096035,1490.12
1575320279.107706,1489.98
1575320279.1159549,1492.19
1575320279.124234,1494.36
1575320279.132535,1495.02
1575320279.144491,1494.93
1575320279.153007,1495.96
1575320279.1609101,1499.82
1575320279.173554,1504.83
1575320279.181592,1511.08
1575320279.190447,1515.98
1575320279.197851,1519.41
1575320279.210167,1523.18
1575320279.2184849,1526.77
1575320279.22677,1529.88
1575320279.238801,1533.27
1575320279.2469041,1533.39
1575320279.2551901,1530.19
1575320279.2632551,1524.17
1575320279.275645,1520.03
1575320279.283917,1519.23
1575320279.292063,1520.37
1575320279.304686,1521.93
1575320279.312522,1522.48
1575320279.321126,1522.57
1575320279.328817,1523.38
1575320279.341206,1524.81
1575320279.3506129,1527.04
1575320279.357589,1529.07
1575320279.369955,1529.81
1575320279.37852,1528.44
1575320279.3871748,1524.63
1575320279.39441,1519.64
1575320279.406898,1515.82
1575320279.414947,1513.48
1575320279.4236429,1514.42
1575320279.436529,1516.09
1575320279.4436579,1517.74
1575320279.452319,1517.78
1575320279.4599512,1517.05
1575320279.472258,1517.11
1575320279.480494,1519.65
1575320279.488624,1522.74
1575320279.502045,1525.9
1575320279.509227,1526.8
1575320279.51887,1525.77
1575320279.525816,1524.11
1575320279.537719,1523.28
1575320279.54638,1524.06
1575320279.555211,1527.43
1575320279.5665238,1531.89
1575320279.574659,1534.41
1575320279.5829089,1534.65
1575320279.591234,1532.06
1575320279.603746,1529.4
1575320279.611627,1528.99
1575320279.620332,1529.75
1575320279.632051,1528.89
1575320279.640216,1525.98
1575320279.648392,1519.82
1575320279.6566248,1511.88
1575320279.669389,1504.69
1575320279.677254,1496.23
1575320279.686024,1490.84
1575320279.697561,1488.88
1575320279.7057989,1487.74
1575320279.713962,1487.09
1575320279.722021,1487.06
1575320279.734595,1487.86
1575320279.743135,1489.12
1575320279.751002,1490.35
1575320279.763138,1491.55
1575320279.77126,1492.86
1575320279.779506,1494.5
1575320279.7877738,1496.63
1575320279.800558,1498.31
1575320279.808245,1498.95
1575320279.816446,1499.14
1575320279.828587,1499.12
1575320279.83703,1499.31
1575320279.8450298,1500.26
1575320279.8538308,1502.38
1575320279.865494,1504.65
1575320279.873763,1506.82
1575320279.8826299,1510.33
1575320279.894201,1514.22
1575320279.903253,1517.47
1575320279.9105878,1522.14
1575320279.9201732,1526.33
1575320279.930946,1528.45
1575320279.93971,1528.32
1575320279.947496,1525.09
1575320279.959863,1522.43
1575320279.969111,1521.75
1575320279.9762409,1523.95
1575320279.985247,1526.09
1575320279.996547,1527.41
1575320280.005165,1527.61
1575320280.012906,1528.79
1575320280.0252109,1532.31
1575320280.0333571,1536.95
1575320280.041821,1539.89
1575320280.050008,1541.9
1575320280.062452,1543.38
1575320280.070626,1545.07
1575320280.078937,1546.15
1575320280.0907269,1546.11
1575320280.099149,1544.66
1575320280.1072252,1543.57
1575320280.115422,1543.93
1575320280.1276171,1546.55
1575320280.136296,1549.55
1575320280.144094,1553.02
1575320280.156288,1554.66
1575320280.164466,1554.47
1575320280.172717,1552.41
1575320280.1808991,1549.06
1575320280.193266,1546.6
1575320280.202004,1545.15
1575320280.2096262,1545.93
1575320280.2219179,1547.43
1575320280.230112,1548.58
1575320280.2382421,1548.49
1575320280.246505,1548.28
1575320280.2586439,1548.61
1575320280.2679198,1549.81
1575320280.275051,1551.12
1575320280.287466,1552.46
1575320280.296277,1552.33
1575320280.304429,1550.34
1575320280.312073,1549.53
1575320280.3242261,1552.05
1575320280.332505,1557.27
1575320280.340618,1561.52
1575320280.35346,1564.18
1575320280.361013,1562.14
1575320280.371228,1557.1
1575320280.37781,1548.65
1575320280.389728,1540.49
1575320280.39794,1536.47
1575320280.406262,1535.5
1575320280.420053,1536.17
1575320280.426851,1535.08
1575320280.4359949,1530.64
1575320280.443232,1525.41
1575320280.455359,1523.48
1575320280.463488,1525.36
1575320280.471725,1530.6
1575320280.4846342,1535.18
1575320280.492235,1538.21
1575320280.500381,1538.04
1575320280.508781,1537.08
1575320280.5213141,1536.48
1575320280.529116,1536.83
1575320280.537527,1537.83
1575320280.549484,1538.33
1575320280.557674,1537.21
1575320280.5659788,1533.32
1575320280.574214,1528.34
1575320280.5869608,1521.28
1575320280.594581,1517.54
1575320280.603272,1519.26
1575320280.616451,1526.16
1575320280.623461,1534.66
1575320280.631853,1540.44
1575320280.6397629,1544.63
1575320280.652441,1545.98
1575320280.660446,1545.67
1575320280.669296,1543.96
1575320280.68085,1541.08
1575320280.688813,1538.7
1575320280.697321,1536.13
1575320280.705177,1534.15
1575320280.718236,1533.06
1575320280.7258098,1531.41
1575320280.7347388,1530.11
1575320280.7465012,1529.72
1575320280.754289,1528.45
1575320280.7629051,1526.1
1575320280.770764,1523.39
1575320280.7838771,1521.83
1575320280.791358,1521.61
1575320280.800444,1522.26
1575320280.812027,1521.91
1575320280.820352,1520.08
1575320280.8283,1517.77
1575320280.836247,1516.42
1575320280.8486662,1516.13
1575320280.856896,1515.95
1575320280.865079,1514.66
1575320280.877749,1511.3
1575320280.886126,1507.25
1575320280.893777,1504.99
1575320280.902407,1503.93
1575320280.914121,1503.2
1575320280.922223,1502.05
1575320280.930642,1500.89
1575320280.942909,1500.33
1575320280.951649,1500.45
1575320280.959528,1502.18
1575320280.968368,1507.12
1575320280.979876,1513.88
1575320280.987797,1523.41
1575320280.9964201,1530.99
1575320281.0082188,1534.32
1575320281.0177972,1534.26
1575320281.0247738,1532.06
1575320281.0341141,1528.51
1575320281.0454998,1525.52
1575320281.0540621,1522.69
1575320281.061836,1520.81
1575320281.073806,1519.97
1575320281.0820532,1519.79
1575320281.0903249,1520.67
1575320281.0985348,1521.36
1575320281.110785,1520.22
1575320281.1195781,1516.15
1575320281.127137,1512.26
1575320281.139478,1510.8
1575320281.147769,1517.09
1575320281.155811,1526.89
1575320281.1643221,1541.26
1575320281.176513,1553.64
1575320281.184802,1561.26
1575320281.1930492,1568.75
1575320281.2048059,1574.78
1575320281.213266,1578.41
1575320281.2213068,1579.81
1575320281.2295449,1576.92
1575320281.2416499,1572.14
1575320281.25191,1568.59
1575320281.258386,1565.08
1575320281.2704158,1562.51
1575320281.278791,1561.14
1575320281.2869189,1559.71
1575320281.295635,1556.95
1575320281.30724,1553.34
1575320281.3157408,1547.94
1575320281.323832,1543.11
1575320281.3363242,1540.65
1575320281.344351,1539.78
1575320281.353249,1540.16
1575320281.360706,1540.11
1575320281.3730261,1538.07
1575320281.38195,1533.09
1575320281.389266,1527.96
1575320281.402179,1522.81
1575320281.409735,1521.33
1575320281.418887,1522.94
1575320281.42625,1526.55
1575320281.438333,1529.53
1575320281.446607,1530.41
1575320281.454747,1530.15
1575320281.468269,1530.53
1575320281.4752471,1533.14
1575320281.484166,1536.2
1575320281.491711,1539.62
1575320281.5038111,1540.81
1575320281.5124018,1539.96
1575320281.520312,1537.35
1575320281.532943,1535.3
1575320281.5408168,1535.06
1575320281.55004,1535.73
1575320281.5574322,1535.63
1575320281.569904,1534.34
1575320281.577672,1531.54
1575320281.586616,1529.06
1575320281.598335,1527.98
1575320281.606406,1529.1
1575320281.614727,1533.51
1575320281.622723,1538.12
1575320281.6355798,1543.37
1575320281.643499,1547.5
1575320281.652149,1549.85
1575320281.65982,1551.26
1575320281.671852,1549.84
1575320281.680109,1546.3
1575320281.688187,1538.7
1575320281.701353,1529.68
1575320281.70902,1521.95
1575320281.7176452,1517.92
1575320281.725228,1515.36
1575320281.73738,1513.87
1575320281.745852,1512.88
1575320281.753758,1511.9
1575320281.767095,1511.17
1575320281.774305,1511.25
1575320281.783339,1513.18
1575320281.790975,1518.12
1575320281.803359,1524.18
1575320281.8112829,1531.46
1575320281.819975,1535.71
1575320281.8317308,1536.99
1575320281.839821,1536.69
1575320281.848256,1534.93
1575320281.8561778,1533.51
1575320281.8696058,1534.13
1575320281.876852,1538.38
1575320281.8862789,1543.43
1575320281.8976262,1548.55
1575320281.905277,1549.96
1575320281.9135108,1548.77
1575320281.9216971,1546.4
1575320281.9352,1544.93
1575320281.942498,1544.36
1575320281.950861,1544.69
1575320281.962993,1546.67
1575320281.9708102,1548.65
1575320281.979412,1548.09
1575320281.98733,1544.24
1575320282.0006661,1538.47
1575320282.0078442,1534.0
1575320282.016105,1530.0
1575320282.028476,1528.59
1575320282.037062,1529.33
1575320282.044737,1530.72
1575320282.05324,1531.02
1575320282.065422,1531.17
1575320282.07328,1533.18
1575320282.081616,1537.1
1575320282.09389,1540.55
1575320282.102606,1543.54
1575320282.1103868,1545.29
1575320282.1190379,1546.9
1575320282.130783,1549.0
1575320282.138816,1549.7
1575320282.1471832,1548.35
1575320282.159313,1543.18
1575320282.1683059,1534.47
1575320282.175881,1524.95
1575320282.1844192,1519.43
1575320282.1966012,1516.61
1575320282.2043688,1517.26
1575320282.212922,1519.14
1575320282.2248662,1521.87
1575320282.233529,1524.15
1575320282.241411,1524.85
1575320282.25027,1524.65
1575320282.262024,1524.94
1575320282.270512,1526.95
1575320282.27829,1531.5
1575320282.2904708,1535.22
1575320282.2986398,1535.68
1575320282.306894,1533.3
1575320282.315104,1530.3
1575320282.3273962,1529.82
1575320282.336254,1532.57
1575320282.3435972,1536.47
1575320282.355948,1538.67
1575320282.364249,1540.24
1575320282.3724868,1541.65
1575320282.380673,1542.47
1575320282.3927581,1542.45
1575320282.401542,1541.64
1575320282.409195,1541.45
1575320282.421452,1541.74
1575320282.429832,1541.27
1575320282.437932,1539.32
1575320282.4464378,1537.38
1575320282.458432,1535.32
1575320282.4675689,1533.14
1575320282.474896,1530.86
1575320282.4874701,1528.83
1575320282.495702,1528.73
1575320282.503513,1529.28
1575320282.5118878,1528.72
1575320282.523953,1524.69
1575320282.532775,1519.11
1575320282.540321,1512.12
1575320282.552991,1508.01
1575320282.5609431,1507.24
1575320282.5698419,1509.19
1575320282.5772538,1513.63
1575320282.589492,1517.08
1575320282.597934,1519.81
1575320282.605806,1521.84
1575320282.6184902,1524.03
1575320282.626453,1529.19
1575320282.635157,1536.39
1575320282.642869,1543.08
1575320282.654871,1547.63
1575320282.663213,1552.6
1575320282.671249,1556.26
1575320282.6841118,1557.29
1575320282.692066,1555.89
1575320282.700616,1552.03
1575320282.708443,1548.17
1575320282.720345,1543.95
1575320282.728878,1541.55
1575320282.737086,1540.83
1575320282.7491279,1540.65
1575320282.757459,1538.89
1575320282.765932,1535.23
1575320282.773847,1529.88
1575320282.7864408,1527.39
1575320282.794285,1528.27
1575320282.802968,1530.98
1575320282.814888,1532.95
1575320282.822853,1533.35
1575320282.832053,1533.31
1575320282.8392909,1533.56
1575320282.852097,1534.88
1575320282.860123,1539.06
1575320282.868619,1545.73
1575320282.880255,1553.59
1575320282.888365,1558.9
1575320282.896689,1563.33
1575320282.904763,1565.82
1575320282.917875,1566.07
1575320282.925298,1562.82
1575320282.9344451,1555.58
1575320282.946018,1547.66
1575320282.953919,1536.4
1575320282.962328,1525.62
1575320282.9702919,1518.62
1575320282.983517,1513.54
1575320282.9909341,1512.55
1575320282.999088,1513.18
1575320283.011381,1513.71
1575320283.0201118,1513.7
1575320283.027791,1514.28
1575320283.0363982,1515.83
1575320283.048409,1517.8
1575320283.0563421,1519.87
1575320283.0647738,1523.07
1575320283.076888,1526.14
1575320283.085529,1527.43
1575320283.0933928,1527.14
1575320283.1020002,1525.49
1575320283.113816,1523.36
1575320283.122207,1521.99
1575320283.130155,1521.05
1575320283.1424909,1520.83
1575320283.150911,1521.51
1575320283.159161,1522.78
1575320283.167966,1523.15
1575320283.1795552,1522.59
1575320283.187544,1521.92
1575320283.1958652,1522.35
1575320283.20787,1522.97
1575320283.216676,1521.38
1575320283.224431,1515.67
1575320283.233748,1509.8
1575320283.244929,1504.57
1575320283.253118,1503.64
1575320283.261413,1505.27
1575320283.273328,1508.62
1575320283.281843,1511.16
1575320283.28985,1511.94
1575320283.2982159,1513.23
1575320283.310441,1516.35
1575320283.319116,1519.35
1575320283.3269088,1521.93
1575320283.3389282,1523.46
1575320283.347355,1526.61
1575320283.355305,1531.3
1575320283.363517,1540.83
1575320283.3758981,1554.29
1575320283.3847198,1565.67
1575320283.3923688,1576.04
1575320283.404371,1578.18
1575320283.4127371,1573.45
1575320283.4210649,1562.9
1575320283.429266,1552.36
1575320283.441261,1546.46
1575320283.4504871,1543.98
1575320283.457973,1546.7
1575320283.4703732,1550.12
1575320283.478411,1554.57
1575320283.486329,1559.61
1575320283.4949021,1563.93
1575320283.5068521,1567.45
1575320283.5152729,1566.11
1575320283.523243,1560.83
1575320283.5361202,1551.02
1575320283.543915,1542.06
1575320283.552599,1539.08
1575320283.56064,1542.58
1575320283.572507,1551.43
1575320283.5808809,1559.58
1575320283.588824,1562.87
1575320283.601504,1563.44
1575320283.609588,1561.74
1575320283.618099,1558.24
1575320283.625791,1550.69
1575320283.638429,1541.8
1575320283.646562,1536.35
1575320283.6543071,1533.74
1575320283.66912,1535.39
1575320283.674989,1538.71
1575320283.684184,1544.88
1575320283.69134,1552.66
1575320283.703806,1558.38
1575320283.711929,1561.42
1575320283.7200608,1557.21
1575320283.7324412,1548.74
1575320283.740364,1534.67
1575320283.748649,1520.86
1575320283.7568798,1512.3
1575320283.7695239,1507.1
1575320283.777456,1509.44
1575320283.786179,1515.4
1575320283.797885,1523.94
1575320283.8059158,1529.17
1575320283.814351,1529.44
1575320283.822282,1527.6
1575320283.835575,1524.64
1575320283.842937,1522.1
1575320283.851527,1520.97
1575320283.8634062,1520.2
1575320283.8715441,1520.8
1575320283.8799748,1523.3
1575320283.887936,1528.48
1575320283.901348,1534.21
1575320283.908339,1537.56
1575320283.917802,1537.91
1575320283.928894,1532.86
1575320283.937289,1525.75
1575320283.945478,1516.29
1575320283.953435,1510.73
1575320283.965685,1510.41
1575320283.973973,1513.56
1575320283.982157,1518.5
1575320283.994508,1523.13
1575320284.003575,1528.41
1575320284.010784,1530.6
1575320284.019477,1528.98
1575320284.031361,1522.77
1575320284.039377,1514.82
1575320284.047957,1509.55
1575320284.05995,1509.67
1575320284.068604,1513.87
1575320284.076624,1518.33
1575320284.085141,1519.73
1575320284.0970082,1518.41
1575320284.104943,1515.56
1575320284.113399,1513.86
1575320284.125828,1513.74
1575320284.134814,1515.22
1575320284.141896,1516.62
1575320284.1509068,1517.98
1575320284.162559,1519.23
1575320284.171027,1520.13
1575320284.178876,1520.87
1575320284.190897,1519.76
1575320284.19939,1517.06
1575320284.2072918,1513.33
1575320284.215647,1512.22
1575320284.227914,1513.55
1575320284.236607,1515.23
1575320284.2443788,1514.65
1575320284.256599,1512.89
1575320284.264858,1510.07
1575320284.272803,1508.19
1575320284.2813141,1507.71
1575320284.293618,1507.92
1575320284.302172,1508.61
1575320284.309917,1509.0
1575320284.3219268,1508.51
1575320284.330423,1506.52
1575320284.338453,1503.16
1575320284.346842,1501.11
1575320284.358968,1501.55
1575320284.367764,1506.48
1575320284.375508,1512.53
1575320284.3874838,1520.47
1575320284.3959,1526.95
1575320284.40391,1529.93
1575320284.412276,1530.7
1575320284.424447,1530.32
1575320284.432678,1530.66
1575320284.440743,1532.22
1575320284.45309,1533.94
1575320284.461453,1535.24
1575320284.470017,1536.78
1575320284.47793,1537.81
1575320284.490057,1538.29
1575320284.503407,1538.74
1575320284.506613,1539.81
1575320284.5191722,1542.9
1575320284.535647,1547.56
1575320284.537036,1554.47
1575320284.543245,1560.35
1575320284.555487,1562.96
1575320284.5638552,1563.13
1575320284.5773308,1560.16
1575320284.584901,1556.13
1575320284.5925078,1550.84
1575320284.600899,1545.99
1575320284.609146,1542.33
1575320284.6209779,1538.74
1575320284.629487,1537.24
1575320284.637334,1537.21
1575320284.650696,1538.11
1575320284.658012,1539.14
1575320284.6674619,1539.04
1575320284.6743958,1536.59
1575320284.6867042,1532.04
1575320284.694918,1528.16
1575320284.703223,1524.43
1575320284.7155929,1523.22
1575320284.7234292,1523.43
1575320284.7318552,1523.58
1575320284.739739,1523.74
1575320284.752675,1525.12
1575320284.760305,1527.46
1575320284.769068,1531.46
1575320284.7810051,1535.59
1575320284.789085,1537.83
1575320284.797527,1537.4
1575320284.805377,1532.08
1575320284.8182259,1524.99
1575320284.826251,1515.61
1575320284.835145,1508.94
1575320284.84656,1506.47
1575320284.8544278,1506.35
1575320284.8628778,1508.55
1575320284.870858,1510.98
1575320284.884379,1514.2
1575320284.891528,1517.25
1575320284.900885,1519.48
1575320284.911965,1521.14
1575320284.9202712,1520.67
1575320284.928263,1518.96
1575320284.9368389,1516.03
1575320284.9488041,1513.72
1575320284.956931,1513.13
1575320284.9652,1513.7
1575320284.977391,1514.72
1575320284.986212,1515.14
1575320284.993859,1514.81
1575320285.003511,1513.83
1575320285.014406,1512.31
1575320285.0224519,1510.58
1575320285.0309289,1508.05
1575320285.043102,1506.24
1575320285.0517912,1505.3
1575320285.059285,1503.65
1575320285.068248,1501.33
1575320285.0798972,1500.13
1575320285.087936,1500.07
1575320285.096765,1501.32
1575320285.108567,1502.88
1575320285.117322,1506.01
1575320285.125015,1509.74
1575320285.134187,1512.39
1575320285.145619,1515.43
1575320285.153918,1518.26
1575320285.1617951,1520.94
1575320285.173951,1524.72
1575320285.18265,1528.0
1575320285.1905348,1529.76
1575320285.19871,1529.65
1575320285.210891,1527.39
1575320285.219607,1522.81
1575320285.2273579,1514.95
1575320285.239573,1493.7
1575320285.248062,1454.36
1575320285.2559302,1407.91
1575320285.2643259,1331.62
1575320285.276803,1238.72
1575320285.285126,1157.28
1575320285.293123,1053.0
1575320285.301427,951.65
1575320285.309477,874.68
1575320285.317742,801.65
1575320285.3257542,732.17
1575320285.3349519,666.62
1575320285.342133,606.13
1575320285.3510048,539.24
1575320285.358436,494.14
1575320285.370566,456.89
1575320285.378721,428.19
1575320285.3869371,408.78
1575320285.395401,398.08
1575320285.403687,395.97
1575320285.411621,401.61
1575320285.4203992,411.94
1575320285.427952,425.41
1575320285.43666,440.97
1575320285.444365,457.08
1575320285.453404,478.07
1575320285.460787,495.3
1575320285.469465,513.25
1575320285.477078,531.77
1575320285.486327,550.83
1575320285.493619,569.61
1575320285.502136,587.27
1575320285.5100532,607.93
1575320285.519094,624.18
1575320285.526378,640.55
1575320285.53514,657.12
1575320285.54282,673.73
1575320285.5511732,690.17
1575320285.559326,709.35
1575320285.568557,723.59
1575320285.575576,737.05
1575320285.58447,749.71
1575320285.591926,761.42
1575320285.6007528,772.71
1575320285.608445,787.42
1575320285.617711,800.0
1575320285.624785,813.28
1575320285.6367512,826.86
1575320285.645268,839.01
1575320285.653485,848.12
1575320285.6616478,855.35
1575320285.6704159,859.79
1575320285.677897,865.19
1575320285.687011,872.66
1575320285.694241,882.3
1575320285.7030132,893.2
1575320285.710847,904.05
1575320285.7194629,916.16
1575320285.726974,923.82
1575320285.735704,930.3
1575320285.743731,937.18
1575320285.752033,945.8
1575320285.759871,956.98
1575320285.768489,974.42
1575320285.776215,990.59
1575320285.785142,1006.83
1575320285.796788,1024.36
1575320285.8047931,1034.76
1575320285.8133261,1043.43
1575320285.821311,1049.78
1575320285.834404,1054.66
1575320285.84181,1061.0
1575320285.850701,1067.56
1575320285.862427,1072.63
1575320285.8702772,1078.56
1575320285.8786519,1083.28
1575320285.8867352,1086.45
1575320285.900279,1091.63
1575320285.9075918,1099.65
1575320285.915413,1108.09
1575320285.927638,1119.08
1575320285.9368262,1128.28
1575320285.944278,1134.17
1575320285.9528372,1140.51
1575320285.9648142,1147.21
1575320285.972794,1155.86
1575320285.981184,1164.72
1575320285.99311,1178.68
1575320286.002141,1195.95
1575320286.01006,1211.15
1575320286.01888,1228.1
1575320286.0302951,1238.22
1575320286.0382988,1240.88
1575320286.046793,1240.37
1575320286.05892,1240.65
1575320286.068157,1243.87
1575320286.075275,1252.16
1575320286.084218,1262.32
1575320286.096033,1268.34
1575320286.103758,1272.48
1575320286.112293,1274.72
1575320286.12424,1276.07
1575320286.133394,1277.71
1575320286.140825,1278.32
1575320286.148944,1277.56
1575320286.161227,1275.69
1575320286.1699252,1274.32
1575320286.1775858,1274.99
1575320286.1899211,1277.76
1575320286.198057,1280.86
1575320286.2063859,1283.73
1575320286.214665,1286.66
1575320286.226958,1292.33
1575320286.235889,1300.67
1575320286.243294,1309.12
1575320286.255271,1320.55
1575320286.2637,1330.12
1575320286.271687,1336.29
1575320286.2802129,1343.79
1575320286.292396,1353.93
1575320286.300906,1364.19
1575320286.308838,1378.08
1575320286.320917,1389.39
1575320286.329294,1394.44
1575320286.3372512,1394.82
1575320286.345771,1389.96
1575320286.3579252,1384.88
1575320286.366924,1380.16
1575320286.37447,1378.31
1575320286.386464,1378.68
1575320286.395276,1380.29
1575320286.4036212,1382.32
1575320286.411165,1384.32
1575320286.423291,1386.74
1575320286.431628,1388.12
1575320286.4396448,1387.14
1575320286.452533,1385.48
1575320286.460293,1385.14
1575320286.4690828,1388.01
1575320286.476994,1391.59
1575320286.488873,1395.59
1575320286.4976268,1398.7
1575320286.505193,1402.15
1575320286.5178921,1409.88
1575320286.525961,1420.95
1575320286.534419,1430.33
1575320286.5422661,1440.41
1575320286.5545652,1447.61
1575320286.5628438,1451.15
1575320286.570925,1453.97
1575320286.583763,1456.92
1575320286.591298,1459.99
1575320286.600033,1463.0
1575320286.6078238,1462.83
1575320286.6205282,1460.56
1575320286.628237,1457.48
1575320286.636616,1456.28
1575320286.6486778,1456.74
1575320286.656723,1457.63
1575320286.6652899,1458.22
1575320286.673186,1457.75
1575320286.686142,1456.62
1575320286.693776,1455.2
1575320286.702527,1453.82
1575320286.714324,1452.8
1575320286.7224479,1453.35
1575320286.730756,1456.35
1575320286.7387,1460.12
1575320286.75168,1464.95
1575320286.7593951,1469.47
1575320286.768053,1472.94
1575320286.779849,1476.67
1575320286.787819,1479.02
1575320286.796222,1480.25
1575320286.8041742,1481.76
1575320286.817568,1483.57
1575320286.824854,1485.16
1575320286.834295,1486.81
1575320286.845473,1487.12
1575320286.8537128,1486.77
1575320286.8618681,1486.13
1575320286.8705301,1486.13
1575320286.8820858,1486.71
1575320286.8904152,1487.9
1575320286.8994932,1489.16
1575320286.91077,1490.08
1575320286.919273,1490.43
1575320286.92704,1490.35
1575320286.936576,1488.39
1575320286.947689,1485.35
1575320286.9557528,1480.73
1575320286.964083,1476.65
1575320286.9762099,1475.44
1575320286.9852328,1476.81
1575320286.992936,1480.82
1575320287.002256,1483.99
1575320287.01324,1485.89
1575320287.021329,1485.78
1575320287.029921,1484.95
1575320287.0417101,1484.52
1575320287.051199,1486.12
1575320287.0585191,1488.76
1575320287.067557,1492.47
1575320287.078976,1494.49
1575320287.0874538,1494.06
1575320287.095584,1490.89
1575320287.107309,1485.88
1575320287.115627,1481.4
1575320287.123795,1476.57
1575320287.132066,1473.48
1575320287.144331,1472.17
1575320287.153405,1471.73
1575320287.160736,1471.84
1575320287.17298,1472.61
1575320287.181343,1473.45
1575320287.1892622,1475.28
1575320287.197574,1478.01
1575320287.20979,1480.12
1575320287.218529,1481.72
1575320287.226314,1482.42
1575320287.238379,1483.32
1575320287.24677,1485.75
1575320287.254731,1490.3
1575320287.2631512,1495.46
1575320287.275517,1502.56
1575320287.284329,1507.4
1575320287.2917812,1508.73
1575320287.3040588,1508.36
1575320287.312126,1507.97
1575320287.320266,1508.57
1575320287.328895,1509.52
1575320287.340817,1508.94
1575320287.349068,1507.41
1575320287.357482,1506.13
1575320287.369913,1507.69
1575320287.377897,1512.05
1575320287.3864908,1515.7
1575320287.3941371,1518.87
1575320287.406433,1520.08
1575320287.414707,1519.74
1575320287.4227982,1517.75
1575320287.435955,1515.25
1575320287.4433432,1514.67
1575320287.452662,1517.42
1575320287.4598022,1521.88
1575320287.471881,1524.32
1575320287.480361,1525.64
1575320287.488292,1528.27
1575320287.5010161,1532.21
1575320287.508929,1538.06
1575320287.518056,1542.3
1575320287.525255,1543.72
1575320287.537361,1543.74
1575320287.545968,1541.88
1575320287.5546129,1539.68
1575320287.566849,1536.41
1575320287.574431,1532.8
1575320287.582572,1529.76
1575320287.590765,1526.14
1575320287.603311,1522.14
1575320287.611469,1517.2
1575320287.620033,1513.41
1575320287.631932,1509.28
1575320287.63972,1506.94
1575320287.648344,1507.26
1575320287.656228,1510.88
1575320287.668978,1516.44
1575320287.676916,1520.18
1575320287.685726,1522.99
1575320287.6973271,1526.1
1575320287.7053509,1529.92
1575320287.713752,1534.82
1575320287.7224681,1537.6
1575320287.734577,1537.43
1575320287.7424152,1534.91
1575320287.7512288,1531.45
1575320287.7629561,1529.34
1575320287.770849,1528.47
1575320287.779379,1529.97
1575320287.78723,1532.71
1575320287.8002188,1535.9
1575320287.80791,1537.85
1575320287.816939,1538.67
1575320287.828662,1539.53
1575320287.836985,1539.64
1575320287.8447628,1539.33
1575320287.8531132,1539.69
1575320287.865338,1540.97
1575320287.8732831,1541.85
1575320287.881702,1541.52
1575320287.893997,1540.06
1575320287.902742,1538.03
1575320287.910466,1536.67
1575320287.91949,1535.2
1575320287.930812,1533.88
1575320287.938796,1532.7
1575320287.947117,1530.84
1575320287.9595299,1528.09
1575320287.9685361,1525.69
1575320287.976002,1523.97
1575320287.984753,1524.64
1575320287.996421,1525.83
1575320288.004419,1526.62
1575320288.012924,1526.33
1575320288.024966,1526.48
1575320288.0343318,1528.11
1575320288.0413928,1531.57
1575320288.050184,1535.71
1575320288.061932,1541.26
1575320288.070008,1545.64
1575320288.078403,1546.8
1575320288.090354,1545.18
1575320288.098696,1542.88
1575320288.107019,1542.02
1575320288.115121,1542.05
1575320288.127542,1542.35
1575320288.136172,1541.94
1575320288.1438458,1540.76
1575320288.155895,1539.31
1575320288.1643672,1538.22
1575320288.1722481,1537.38
1575320288.1807208,1536.36
1575320288.193036,1535.57
1575320288.20144,1535.12
1575320288.209523,1535.24
1575320288.221356,1535.97
1575320288.229899,1536.78
1575320288.2378,1537.85
1575320288.246308,1537.45
1575320288.258504,1535.16
1575320288.2673888,1530.5
1575320288.274934,1525.8
1575320288.287074,1522.86
1575320288.295721,1519.92
1575320288.303626,1517.48
1575320288.3119009,1514.66
1575320288.323853,1512.11
1575320288.332145,1509.17
1575320288.340393,1506.88
1575320288.353,1505.8
1575320288.360908,1505.71
1575320288.369819,1507.17
1575320288.377546,1509.63
1575320288.389514,1514.37
1575320288.3979242,1519.96
1575320288.40582,1523.95
1575320288.418544,1527.51
1575320288.426242,1529.58
1575320288.435885,1530.33
1575320288.442752,1530.29
1575320288.454856,1530.33
1575320288.463291,1531.31
1575320288.4712682,1533.74
1575320288.484237,1536.28
1575320288.492021,1537.48
1575320288.500746,1536.48
1575320288.508267,1532.56
1575320288.520365,1528.89
1575320288.528893,1526.27
1575320288.5368168,1526.73
1575320288.54923,1528.63
1575320288.5574772,1528.95
1575320288.5656168,1526.19
1575320288.573847,1521.99
1575320288.586623,1519.92
1575320288.5942779,1519.48
1575320288.6030452,1520.03
1575320288.614944,1520.51
1575320288.622881,1520.54
1575320288.631362,1520.71
1575320288.6392078,1521.47
1575320288.652477,1522.43
1575320288.66006,1522.58
1575320288.668549,1521.95
1575320288.680404,1521.95
1575320288.6884758,1525.12
1575320288.697056,1530.34
1575320288.70475,1536.99
1575320288.717891,1539.68
1575320288.725472,1538.55
1575320288.734277,1535.02
1575320288.7458072,1531.4
1575320288.7539358,1529.59
1575320288.762496,1528.62
1575320288.770283,1527.32
1575320288.782659,1524.87
1575320288.790945,1522.87
1575320288.799374,1520.91
1575320288.8114161,1519.47
1575320288.820577,1519.08
1575320288.827898,1519.82
1575320288.8363562,1521.26
1575320288.848511,1522.01
1575320288.8563359,1521.45
1575320288.864623,1519.03
1575320288.876787,1516.58
1575320288.885695,1515.08
1575320288.893426,1517.58
1575320288.902146,1521.79
1575320288.9136598,1526.92
1575320288.921831,1529.51
1575320288.930285,1530.59
1575320288.942375,1534.02
1575320288.951356,1541.76
1575320288.958851,1549.7
1575320288.967669,1557.73
1575320288.979567,1559.45
1575320288.9874141,1555.79
1575320288.995896,1547.12
1575320289.007864,1537.42
1575320289.017142,1530.28
1575320289.0245209,1527.79
1575320289.032577,1529.15
1575320289.044947,1533.97
1575320289.0534558,1539.13
1575320289.061576,1546.48
1575320289.0733728,1554.01
1575320289.081755,1559.34
1575320289.08983,1564.96
1575320289.098248,1570.16
1575320289.110414,1574.08
1575320289.1192,1578.34
1575320289.126689,1581.54
1575320289.138933,1582.98
1575320289.1473489,1583.51
1575320289.1553652,1582.93
1575320289.163867,1581.95
1575320289.175992,1580.13
1575320289.185557,1577.13
1575320289.192426,1573.69
1575320289.204489,1568.64
1575320289.2130592,1564.36
1575320289.220934,1562.58
1575320289.2293608,1562.08
1575320289.2415009,1561.7
1575320289.250323,1559.39
1575320289.257874,1556.12
1575320289.270017,1552.12
1575320289.2784278,1549.0
1575320289.286844,1546.99
1575320289.294867,1544.07
1575320289.307036,1539.43
1575320289.315289,1535.1
1575320289.3234391,1531.13
1575320289.33621,1530.23
1575320289.3440158,1531.1
1575320289.352778,1532.04
1575320289.360235,1532.98
1575320289.372449,1534.0
1575320289.380661,1536.07
1575320289.388812,1539.45
1575320289.401807,1541.4
1575320289.4099462,1541.01
1575320289.4182851,1538.03
1575320289.425813,1535.83
1575320289.437948,1535.47
1575320289.446286,1538.47
1575320289.454462,1543.15
1575320289.467309,1549.38
1575320289.474952,1552.8
1575320289.483681,1550.5
1575320289.491478,1543.96
1575320289.503791,1532.88
1575320289.5120409,1524.21
1575320289.520585,1521.48
1575320289.5282571,1523.53
1575320289.540531,1529.82
1575320289.5486798,1535.81
1575320289.556942,1541.65
1575320289.5694652,1544.35
1575320289.5771918,1544.55
1575320289.5862489,1544.19
1575320289.593898,1544.4
1575320289.605869,1545.92
1575320289.614323,1549.93
1575320289.622383,1556.24
1575320289.635071,1561.47
1575320289.642914,1565.24
1575320289.651668,1564.58
1575320289.659491,1560.6
1575320289.671416,1553.15
1575320289.6798668,1546.34
1575320289.687974,1543.07
1575320289.7007139,1541.46
1575320289.708448,1541.49
1575320289.717107,1541.52
1575320289.724834,1541.01
1575320289.7371771,1539.6
1575320289.745451,1538.08
1575320289.753726,1537.89
1575320289.7658272,1539.75
1575320289.7738519,1544.15
1575320289.7821639,1548.24
1575320289.790465,1553.2
1575320289.8031402,1557.86
1575320289.81089,1560.6
1575320289.8196201,1562.45
1575320289.831359,1563.42
1575320289.839338,1565.23
1575320289.84784,1569.99
1575320289.855785,1577.08
1575320289.86885,1583.29
1575320289.876544,1589.89
1575320289.8851478,1592.15
1575320289.8971379,1589.49
1575320289.904897,1581.98
1575320289.913429,1574.28
1575320289.921247,1571.48
1575320289.934316,1573.22
1575320289.941788,1577.11
1575320289.952179,1578.64
1575320289.9625301,1576.19
1575320289.970458,1569.45
1575320289.978938,1562.28
1575320289.9872699,1559.03
1575320289.9994419,1559.54
1575320290.007355,1563.98
1575320290.015579,1567.85
1575320290.02793,1568.78
1575320290.036802,1564.63
1575320290.0441868,1559.23
1575320290.052968,1553.22
1575320290.064953,1551.25
1575320290.072916,1553.52
1575320290.081305,1559.96
1575320290.093342,1566.29
1575320290.102106,1569.12
1575320290.109901,1569.55
1575320290.1187258,1567.97
1575320290.130419,1565.9
1575320290.138361,1562.32
1575320290.146773,1558.33
1575320290.1590872,1555.5
1575320290.167784,1553.12
1575320290.175493,1552.21
1575320290.184693,1552.31
1575320290.1959941,1552.44
1575320290.204022,1552.76
1575320290.212505,1553.66
1575320290.2243829,1554.97
1575320290.232876,1559.03
1575320290.2408478,1566.38
1575320290.249133,1572.66
1575320290.261478,1576.86
1575320290.270369,1574.58
1575320290.277663,1569.42
1575320290.2900732,1562.44
1575320290.2984052,1558.81
1575320290.30636,1558.92
1575320290.314846,1560.64
1575320290.3269079,1562.9
1575320290.335815,1565.21
1575320290.3434439,1568.43
1575320290.355558,1571.27
1575320290.363792,1572.93
1575320290.371802,1574.69
1575320290.380298,1576.31
1575320290.392509,1576.7
1575320290.401665,1575.36
1575320290.409003,1571.31
1575320290.421193,1564.59
1575320290.429366,1558.45
1575320290.43738,1551.31
1575320290.4457312,1544.94
1575320290.457791,1540.27
1575320290.4662201,1535.32
1575320290.474428,1533.03
1575320290.486946,1533.51
1575320290.4948962,1536.09
1575320290.5035799,1539.7
1575320290.5114582,1543.02
1575320290.5235572,1547.07
1575320290.531756,1550.88
1575320290.5399199,1553.23
1575320290.552711,1554.79
1575320290.560662,1554.95
1575320290.569577,1554.28
1575320290.5766861,1551.86
1575320290.588928,1547.66
1575320290.5973928,1544.82
1575320290.605448,1544.28
1575320290.618285,1547.82
1575320290.625966,1553.03
1575320290.6352131,1560.31
1575320290.642506,1565.79
1575320290.65455,1567.83
1575320290.662967,1567.04
1575320290.6710742,1565.43
1575320290.6841989,1564.9
1575320290.6914492,1564.81
1575320290.699918,1563.3
1575320290.7078469,1559.74
1575320290.720591,1557.1
1575320290.728385,1555.44
1575320290.736971,1554.56
1575320290.748799,1552.68
1575320290.756947,1548.74
1575320290.765249,1545.13
1575320290.77349,1543.58
1575320290.786259,1542.88
1575320290.793775,1541.61
1575320290.802597,1539.31
1575320290.814399,1536.0
1575320290.822634,1533.8
1575320290.830663,1533.82
1575320290.838828,1536.86
1575320290.852169,1542.26
1575320290.859456,1546.99
1575320290.868403,1552.36
1575320290.8798468,1556.19
1575320290.887925,1558.17
1575320290.89635,1558.56
1575320290.904323,1557.84
1575320290.9195368,1556.12
1575320290.924785,1553.87
1575320290.933064,1549.67
1575320290.945411,1543.93
1575320290.9541829,1539.48
1575320290.961882,1535.25
1575320290.970212,1533.83
1575320290.9824362,1535.28
1575320290.990478,1538.78
1575320290.9987378,1542.19
1575320291.010879,1544.0
1575320291.019063,1544.97
1575320291.027377,1545.13
1575320291.036272,1545.78
1575320291.047798,1547.74
1575320291.055982,1549.32
1575320291.064304,1548.8
1575320291.076352,1545.19
1575320291.085269,1539.52
1575320291.093168,1534.35
1575320291.1016378,1528.48
1575320291.113495,1523.84
1575320291.1214662,1520.28
1575320291.12989,1518.2
1575320291.1420748,1516.01
1575320291.1508632,1514.09
1575320291.1585789,1513.13
1575320291.167993,1513.36
1575320291.1789691,1514.92
1575320291.1869812,1516.52
1575320291.195513,1517.99
1575320291.20749,1518.99
1575320291.215851,1519.43
1575320291.223893,1519.65
1575320291.232206,1519.94
1575320291.244433,1519.63
1575320291.253197,1517.81
1575320291.2608588,1515.35
1575320291.272971,1514.92
1575320291.281455,1518.2
1575320291.289331,1525.88
1575320291.297896,1533.24
1575320291.310294,1541.09
1575320291.319448,1545.81
1575320291.3263218,1547.94
1575320291.33847,1549.3
1575320291.3470562,1549.02
1575320291.354955,1547.79
1575320291.3635461,1547.23
1575320291.375468,1548.77
1575320291.38511,1554.01
1575320291.392054,1560.43
1575320291.403994,1569.36
1575320291.412881,1577.64
1575320291.420776,1582.92
1575320291.428809,1587.57
1575320291.44096,1589.94
1575320291.449263,1590.02
1575320291.457286,1587.88
1575320291.470048,1585.39
1575320291.478056,1584.56
1575320291.486531,1585.55
1575320291.494312,1588.12
1575320291.5064058,1589.79
1575320291.5149481,1590.14
1575320291.5228212,1588.74
1575320291.5356932,1587.15
1575320291.543809,1585.31
1575320291.5521438,1583.94
1575320291.559961,1583.04
1575320291.571954,1581.39
1575320291.5804749,1578.36
1575320291.588483,1572.41
1575320291.6014981,1565.86
1575320291.609237,1557.32
1575320291.618242,1550.6
1575320291.625393,1547.31
1575320291.637526,1544.41
1575320291.646123,1541.5
1575320291.654923,1538.79
1575320291.6680052,1534.61
1575320291.6745842,1529.21
1575320291.682699,1524.24
1575320291.691013,1518.1
1575320291.7035992,1512.67
1575320291.711457,1509.2
1575320291.719937,1505.51
1575320291.7320719,1502.42
1575320291.740065,1500.0
1575320291.748377,1497.77
1575320291.756397,1497.5
1575320291.769415,1499.45
1575320291.7772212,1504.75
1575320291.785822,1511.86
1575320291.797308,1516.81
1575320291.805485,1520.11
1575320291.813885,1520.24
1575320291.82191,1518.58
1575320291.83528,1517.39
1575320291.8424041,1517.51
1575320291.851409,1519.14
1575320291.863169,1520.71
1575320291.871068,1521.63
1575320291.879593,1520.36
1575320291.8876648,1518.07
1575320291.900662,1515.21
1575320291.9080472,1514.02
1575320291.917871,1514.97
1575320291.928535,1517.44
1575320291.937048,1519.73
1575320291.9447901,1520.25
1575320291.9538,1519.07
1575320291.9652731,1516.91
1575320291.973578,1515.65
1575320291.981832,1515.54
1575320291.994088,1517.65
1575320292.003042,1520.94
1575320292.010645,1526.49
1575320292.019124,1532.51
1575320292.030899,1535.68
1575320292.038938,1536.46
1575320292.0474172,1536.15
1575320292.059509,1537.15
1575320292.068407,1540.31
1575320292.076053,1547.34
1575320292.084825,1555.52
1575320292.096889,1560.72
1575320292.1045492,1564.55
1575320292.113086,1566.6
1575320292.1251268,1567.9
1575320292.134521,1569.51
1575320292.141549,1571.96
1575320292.1497338,1574.32
1575320292.1620321,1576.55
1575320292.1703339,1576.43
1575320292.1784189,1573.8
1575320292.190519,1568.5
1575320292.198838,1562.52
1575320292.207076,1559.19
1575320292.21529,1558.75
1575320292.227434,1561.51
1575320292.236192,1563.41
1575320292.243793,1562.63
1575320292.256205,1558.35
1575320292.264461,1554.11
1575320292.2724962,1549.82
1575320292.280759,1547.03
1575320292.2931762,1545.84
1575320292.3019168,1546.23
1575320292.309514,1547.7
1575320292.321546,1548.38
1575320292.3298712,1547.03
1575320292.337962,1542.28
1575320292.346543,1535.61
1575320292.358712,1531.64
1575320292.3676338,1530.86
1575320292.3749928,1534.25
1575320292.387135,1538.14
1575320292.395304,1541.21
1575320292.403737,1540.24
1575320292.412726,1536.48
1575320292.424215,1530.03
1575320292.432296,1524.7
1575320292.440334,1521.84
1575320292.453642,1519.08
1575320292.4608262,1515.12
1575320292.469706,1509.88
1575320292.477407,1500.86
1575320292.489464,1490.49
1575320292.497947,1482.0
1575320292.50603,1472.97
1575320292.518806,1468.28
1575320292.526531,1466.96
1575320292.535388,1465.6
1575320292.543299,1460.81
1575320292.555208,1452.89
1575320292.563307,1446.88
1575320292.5714471,1442.29
1575320292.584467,1441.22
1575320292.5920541,1442.07
1575320292.601014,1442.19
1575320292.60847,1438.68
1575320292.620577,1433.0
1575320292.62911,1424.81
1575320292.637326,1418.67
1575320292.649367,1416.47
1575320292.657624,1417.86
1575320292.667743,1422.81
1575320292.6740391,1427.75
1575320292.6866639,1432.93
1575320292.6945732,1436.53
1575320292.703161,1439.47
1575320292.715117,1443.75
1575320292.723037,1448.62
1575320292.731333,1452.56
1575320292.739425,1456.5
1575320292.7526028,1460.38
1575320292.760138,1465.09
1575320292.768697,1469.41
1575320292.7805781,1474.84
1575320292.7886348,1479.47
1575320292.796976,1482.29
1575320292.8050659,1485.14
1575320292.818235,1488.25
1575320292.825632,1491.13
1575320292.835252,1495.27
1575320292.8462248,1499.31
1575320292.854053,1502.2
1575320292.86257,1504.3
1575320292.8708322,1505.8
1575320292.883002,1507.64
1575320292.890939,1510.52
1575320292.8993092,1512.84
1575320292.911861,1513.19
1575320292.9202392,1512.14
1575320292.927852,1510.2
1575320292.93698,1508.28
1575320292.948469,1506.31
1575320292.9564428,1504.93
1575320292.964973,1504.53
1575320292.977002,1504.81
1575320292.985852,1505.5
1575320292.993718,1506.43
1575320293.003218,1507.42
1575320293.013918,1509.09
1575320293.022017,1510.67
1575320293.0305011,1511.28
1575320293.0424268,1510.01
1575320293.0517278,1506.81
1575320293.059041,1503.37
1575320293.0678341,1498.84
1575320293.07961,1494.39
1575320293.087517,1491.19
1575320293.0962088,1488.16
1575320293.1081228,1487.11
1575320293.1165419,1487.58
1575320293.124429,1488.63
1575320293.132728,1488.85
1575320293.1451058,1487.29
1575320293.153728,1483.41
1575320293.161588,1479.09
1575320293.173644,1477.69
1575320293.18194,1480.74
1575320293.190125,1487.51
1575320293.198556,1492.78
1575320293.210907,1495.64
1575320293.219243,1494.16
1575320293.2271092,1490.35
1575320293.2391198,1487.23
1575320293.247487,1485.68
1575320293.255463,1487.55
1575320293.263909,1491.55
1575320293.276125,1498.59
1575320293.284841,1505.74
1575320293.292692,1510.44
1575320293.3046331,1514.11
1575320293.312896,1513.91
1575320293.32102,1510.59
1575320293.329516,1503.92
1575320293.341675,1498.14
1575320293.349998,1496.34
1575320293.3578858,1497.58
1575320293.3706791,1501.02
1575320293.378736,1504.74
1575320293.3875809,1510.33
1575320293.395006,1517.25
1575320293.4071848,1523.01
1575320293.415735,1528.86
1575320293.423834,1531.9
1575320293.437001,1532.49
1575320293.444055,1532.42
1575320293.452609,1532.5
1575320293.460429,1530.93
1575320293.472568,1527.33
1575320293.481001,1520.3
1575320293.4890518,1512.3
1575320293.5021288,1505.74
1575320293.50972,1498.07
1575320293.518583,1492.36
1575320293.526124,1490.53
1575320293.5380878,1491.95
1575320293.5464058,1496.16
1575320293.554503,1500.18
1575320293.567873,1504.46
1575320293.575191,1507.63
1575320293.584291,1510.22
1575320293.591616,1514.54
1575320293.604186,1520.35
1575320293.6120598,1525.43
1575320293.620598,1531.46
1575320293.6323788,1535.51
1575320293.640764,1536.72
1575320293.648849,1535.35
1575320293.657061,1531.75
1575320293.66976,1529.93
1575320293.6774971,1530.78
1575320293.686432,1534.54
1575320293.694019,1538.54
1575320293.706023,1540.31
1575320293.714514,1540.67
1575320293.722527,1540.17
1575320293.735512,1540.58
1575320293.7431831,1542.23
1575320293.751819,1544.24
1575320293.759479,1545.18
1575320293.771602,1545.31
1575320293.779979,1544.92
1575320293.788209,1544.67
1575320293.800909,1545.21
1575320293.808585,1546.9
1575320293.8175108,1548.79
1575320293.824882,1551.25
1575320293.8375108,1553.24
1575320293.8456042,1554.2
1575320293.854044,1555.04
1575320293.8658612,1556.15
1575320293.8741279,1557.46
1575320293.882315,1558.09
1575320293.890611,1555.47
1575320293.903404,1550.89
1575320293.911017,1543.47
1575320293.919921,1536.64
1575320293.931523,1532.07
1575320293.939529,1530.03
1575320293.947791,1527.94
1575320293.955947,1525.13
1575320293.969321,1523.86
1575320293.976684,1524.82
1575320293.985554,1527.47
1575320293.997094,1529.69
1575320294.005025,1532.61
1575320294.013458,1535.99
1575320294.0220292,1538.93
1575320294.035198,1542.72
1575320294.0421288,1547.14
1575320294.050692,1551.0
1575320294.062634,1555.41
1575320294.070642,1558.74
1575320294.0790882,1560.31
1575320294.0876238,1560.48
1575320294.099481,1558.57
1575320294.107646,1555.07
1575320294.115801,1547.79
1575320294.127949,1538.43
1575320294.136771,1530.94
1575320294.144459,1523.36
1575320294.1534688,1519.85
1575320294.1650171,1519.48
1575320294.173034,1519.16
1575320294.181362,1517.5
1575320294.1937358,1514.16
1575320294.202229,1510.22
1575320294.210093,1506.85
1575320294.2188501,1516.46
1575320294.2305331,1542.54
1575320294.238562,1602.61
1575320294.247081,1688.96
1575320294.2591732,1770.64
1575320294.268749,1880.0
1575320294.275558,1991.14
1575320294.2850292,2079.04
1575320294.29616,2186.21
1575320294.304157,2286.92
1575320294.312574,2358.28
1575320294.324715,2429.6
1575320294.3328362,2477.92
1575320294.341138,2501.73
1575320294.349539,2519.23
1575320294.3616152,2528.48
1575320294.370029,2532.28
1575320294.3781388,2533.61
1575320294.3901062,2531.03
1575320294.398477,2524.04
1575320294.406571,2515.54
1575320294.415054,2503.32
1575320294.427026,2490.98
1575320294.4360902,2481.37
1575320294.443425,2469.28
1575320294.4555771,2456.19
1575320294.4640498,2443.87
1575320294.471997,2425.71
1575320294.480437,2405.45
1575320294.492815,2389.79
1575320294.5014012,2374.38
1575320294.509053,2365.9
1575320294.521177,2363.15
1575320294.5297248,2362.44
1575320294.5385442,2360.65
1575320294.546102,2356.19
1575320294.5582879,2346.44
1575320294.566419,2333.8
1575320294.574635,2324.29
1575320294.587302,2314.86
1575320294.595099,2307.67
1575320294.603551,2301.77
1575320294.611454,2292.05
1575320294.623741,2278.59
1575320294.6320808,2261.37
1575320294.639981,2245.83
1575320294.652836,2225.9
1575320294.660429,2206.35
1575320294.66919,2191.0
1575320294.677326,2172.53
1575320294.6892622,2156.22
1575320294.697829,2146.04
1575320294.705546,2136.13
1575320294.718278,2127.42
1575320294.7262132,2120.42
1575320294.735019,2110.55
1575320294.742541,2099.02
1575320294.7545779,2089.89
1575320294.763256,2080.35
1575320294.771322,2070.26
1575320294.783916,2059.04
1575320294.791604,2040.87
1575320294.80066,2021.79
1575320294.808099,2008.23
1575320294.8207731,1995.75
1575320294.8285701,1990.5
1575320294.836947,1991.82
1575320294.849013,1999.08
1575320294.857153,2009.23
1575320294.865494,2017.33
1575320294.8735309,2019.08
1575320294.88638,2014.3
1575320294.893872,2004.47
1575320294.902944,1995.33
1575320294.914669,1983.08
1575320294.922744,1967.26
1575320294.930885,1948.93
1575320294.939019,1918.87
1575320294.9517188,1886.91
1575320294.9596071,1864.68
1575320294.968885,1843.75
1575320294.9800498,1829.7
1575320294.988158,1821.6
1575320294.9965298,1813.6
1575320295.005028,1807.91
1575320295.019855,1804.65
1575320295.025034,1800.88
1575320295.033383,1796.25
1575320295.0456378,1792.24
1575320295.053976,1787.19
1575320295.0622232,1782.86
1575320295.0710468,1779.68
1575320295.082483,1774.63
1575320295.0907662,1768.54
1575320295.09889,1762.05
1575320295.1111429,1756.75
1575320295.1198652,1749.91
1575320295.127421,1742.26
1575320295.1363788,1735.97
1575320295.148036,1729.13
1575320295.156089,1724.75
1575320295.164397,1723.77
1575320295.1764789,1726.43
1575320295.185459,1731.65
1575320295.193121,1735.32
1575320295.202243,1737.94
1575320295.213519,1738.4
1575320295.221568,1737.2
1575320295.2299929,1733.81
1575320295.2422268,1729.69
1575320295.2517529,1726.8
1575320295.2586849,1724.32
1575320295.268118,1722.64
1575320295.279212,1720.85
1575320295.287346,1717.67
1575320295.295648,1713.04
1575320295.307601,1709.16
1575320295.3160052,1704.93
1575320295.3241699,1702.25
1575320295.332476,1700.6
1575320295.3445828,1698.47
1575320295.353184,1692.47
1575320295.3609622,1681.32
1575320295.373133,1669.23
1575320295.3814652,1653.85
1575320295.38952,1642.34
1575320295.397711,1637.23
1575320295.410413,1634.75
1575320295.4194372,1633.64
1575320295.426698,1632.19
1575320295.438642,1630.44
1575320295.446927,1630.01
1575320295.4551091,1630.29
1575320295.463433,1631.93
1575320295.47555,1635.19
1575320295.4846022,1637.35
1575320295.492123,1637.68
1575320295.504271,1636.1
1575320295.512616,1633.86
1575320295.520823,1631.07
1575320295.529196,1629.0
1575320295.54108,1627.28
1575320295.5495,1623.7
1575320295.557654,1616.89
1575320295.570654,1608.04
1575320295.578242,1601.45
1575320295.5868108,1596.6
1575320295.594497,1595.67
1575320295.606606,1596.76
1575320295.614947,1598.98
1575320295.6230772,1601.48
1575320295.636022,1604.58
1575320295.643744,1610.49
1575320295.6524649,1616.38
1575320295.6601012,1618.9
1575320295.672137,1618.5
1575320295.680523,1616.8
1575320295.688531,1617.18
1575320295.701803,1621.69
1575320295.709234,1629.54
1575320295.718304,1635.62
1575320295.725643,1640.54
1575320295.737746,1642.49
1575320295.7462158,1642.26
1575320295.75487,1640.13
1575320295.767322,1636.44
1575320295.774799,1632.23
1575320295.782971,1624.95
1575320295.791163,1616.16
1575320295.8038342,1606.67
1575320295.811598,1599.32
1575320295.820261,1592.3
1575320295.8321311,1587.83
1575320295.840102,1584.99
1575320295.848473,1580.08
1575320295.856668,1572.28
1575320295.869805,1564.0
1575320295.8772638,1553.47
1575320295.886074,1546.24
1575320295.8976388,1543.62
1575320295.905699,1542.91
1575320295.913996,1542.84
1575320295.9220061,1542.35
1575320295.934828,1541.09
1575320295.942594,1538.6
1575320295.95209,1535.27
1575320295.963049,1530.71
1575320295.971355,1527.85
1575320295.979698,1527.21
1575320295.987628,1527.76
1575320295.999874,1527.86
1575320296.00819,1526.68
1575320296.017076,1523.6
1575320296.028872,1520.43
1575320296.037316,1518.5
1575320296.045231,1518.27
1575320296.053828,1519.9
1575320296.065569,1523.09
1575320296.073633,1526.73
1575320296.082164,1532.37
1575320296.09418,1537.71
1575320296.103062,1540.51
1575320296.110465,1541.53
1575320296.1192372,1540.92
1575320296.131049,1541.43
1575320296.1393569,1544.48
1575320296.14775,1549.81
1575320296.159629,1554.78
1575320296.168378,1560.56
1575320296.176207,1564.53
1575320296.185144,1566.25
1575320296.196459,1566.48
1575320296.204711,1564.29
1575320296.213208,1561.79
1575320296.225267,1559.4
1575320296.2336152,1557.7
1575320296.2415621,1556.21
1575320296.2499561,1554.27
1575320296.2621472,1552.78
1575320296.270723,1551.53
1575320296.278701,1550.99
1575320296.290835,1552.48
1575320296.2989929,1557.05
1575320296.307057,1561.97
1575320296.3155751,1568.08
1575320296.327463,1572.16
1575320296.3364658,1573.35
1575320296.344126,1573.41
1575320296.356194,1573.13
1575320296.364547,1573.33
1575320296.372601,1573.95
1575320296.381004,1573.97
1575320296.3933241,1571.31
1575320296.401935,1562.35
1575320296.4096682,1548.87
1575320296.421674,1537.85
1575320296.43062,1526.11
1575320296.4384131,1516.75
1575320296.446518,1510.79
1575320296.458672,1506.01
1575320296.468208,1503.64
1575320296.4751139,1503.45
1575320296.4873102,1504.81
1575320296.4959328,1506.75
1575320296.504289,1508.42
1575320296.512202,1509.77
1575320296.5243032,1511.04
1575320296.5325289,1510.55
1575320296.540753,1509.13
1575320296.553439,1507.68
1575320296.5611289,1506.94
1575320296.569998,1506.54
1575320296.577516,1505.96
1575320296.5896618,1505.45
1575320296.598103,1505.95
1575320296.606124,1508.98
1575320296.618925,1514.3
1575320296.62683,1518.96
1575320296.635535,1523.62
1575320296.643046,1525.77
1575320296.655164,1526.25
1575320296.663489,1526.59
1575320296.671587,1527.18
1575320296.684881,1527.58
1575320296.692207,1526.48
1575320296.701761,1523.75
1575320296.708769,1521.25
1575320296.7209978,1518.58
1575320296.729145,1517.14
1575320296.737469,1515.84
1575320296.7496672,1514.99
1575320296.757675,1514.61
1575320296.765975,1514.29
1575320296.7741928,1513.91
1575320296.786848,1512.55
1575320296.7947378,1510.01
1575320296.803422,1508.14
1575320296.8151581,1506.63
1575320296.823164,1503.91
1575320296.8316338,1499.9
1575320296.839564,1495.15
1575320296.852669,1492.8
1575320296.8601642,1492.06
1575320296.8691368,1490.6
1575320296.880765,1487.8
1575320296.888644,1485.72
1575320296.8972821,1484.92
1575320296.9050891,1486.4
1575320296.918371,1489.04
1575320296.925827,1493.23
1575320296.934929,1497.39
1575320296.946054,1499.67
1575320296.954334,1499.41
1575320296.962476,1496.73
1575320296.9710348,1495.12
1575320296.9830332,1496.75
1575320296.9911969,1501.81
1575320296.9994922,1507.37
1575320297.0116448,1510.63
1575320297.0205271,1513.13
1575320297.028219,1512.68
1575320297.036917,1509.98
1575320297.048724,1505.54
1575320297.0566888,1503.35
1575320297.0650759,1505.05
1575320297.077282,1510.79
1575320297.086087,1517.35
1575320297.093668,1521.77
1575320297.102443,1527.13
1575320297.114134,1532.96
1575320297.122169,1537.2
1575320297.1305978,1540.45
1575320297.1427689,1541.66
1575320297.151671,1542.51
1575320297.1592,1544.43
1575320297.168319,1545.51
1575320297.179541,1544.65
1575320297.188179,1541.34
1575320297.196197,1536.78
1575320297.208202,1533.06
1575320297.2166662,1531.36
1575320297.224633,1530.83
1575320297.2330081,1531.29
1575320297.245304,1532.06
1575320297.2539241,1533.45
1575320297.261707,1534.89
1575320297.273844,1535.51
1575320297.2821062,1535.84
1575320297.290326,1536.13
1575320297.298424,1536.79
1575320297.31058,1539.04
1575320297.319444,1543.09
1575320297.327083,1546.25
1575320297.3392751,1547.95
1575320297.347765,1546.24
1575320297.355571,1543.45
1575320297.3641112,1541.12
1575320297.376419,1541.15
1575320297.3853629,1542.04
1575320297.392568,1543.2
1575320297.4048378,1544.1
1575320297.413183,1544.48
1575320297.421197,1543.99
1575320297.429899,1543.51
1575320297.441918,1544.48
1575320297.449943,1545.76
1575320297.458103,1547.25
1575320297.470916,1548.4
1575320297.478661,1548.24
1575320297.4873679,1547.13
1575320297.495052,1546.0
1575320297.5072682,1545.72
1575320297.5156322,1546.32
1575320297.523694,1548.24
1575320297.536601,1549.65
1575320297.544055,1549.4
1575320297.552978,1546.22
1575320297.560632,1542.07
1575320297.572698,1535.9
1575320297.581125,1530.03
1575320297.589259,1526.21
1575320297.6021209,1522.36
1575320297.609913,1519.76
1575320297.618649,1518.82
1575320297.626209,1519.11
1575320297.6382642,1521.62
1575320297.6466298,1525.29
1575320297.6547,1530.97
1575320297.6698592,1536.8
1575320297.675354,1542.47
1575320297.683466,1546.72
1575320297.691639,1551.72
1575320297.7042089,1555.89
1575320297.7122738,1558.21
1575320297.720746,1559.74
1575320297.7326488,1560.26
1575320297.74068,1559.42
1575320297.7490828,1556.72
1575320297.757185,1552.81
1575320297.770022,1549.76
1575320297.777567,1547.49
1575320297.786359,1547.07
1575320297.798228,1546.96
1575320297.8063638,1546.3
1575320297.814635,1544.55
1575320297.82268,1542.04
1575320297.8360808,1538.23
1575320297.843252,1534.21
1575320297.852267,1530.46
1575320297.8638668,1525.57
1575320297.871882,1522.07
1575320297.8801868,1520.89
1575320297.888257,1520.85
1575320297.9015281,1521.72
1575320297.908778,1522.92
1575320297.917023,1523.42
1575320297.9252381,1524.01
1575320297.9379258,1525.38
1575320297.945708,1526.74
1575320297.954762,1528.01
1575320297.9660318,1528.31
1575320297.974187,1527.28
1575320297.982497,1524.08
1575320297.9907389,1519.95
1575320298.00416,1517.38
1575320298.011175,1516.06
1575320298.019993,1516.29
1575320298.0316238,1516.55
1575320298.039679,1515.71
1575320298.0480168,1513.14
1575320298.0560808,1511.59
1575320298.069196,1513.58
1575320298.076837,1522.49
1575320298.08571,1534.91
1575320298.097297,1557.52
1575320298.1051872,1587.76
1575320298.1135628,1614.11
1575320298.121588,1643.2
1575320298.134644,1661.88
1575320298.1421828,1666.9
1575320298.1517398,1660.92
1575320298.162899,1643.34
1575320298.1712341,1617.72
1575320298.179203,1594.12
1575320298.187736,1564.26
1575320298.199735,1537.46
1575320298.207686,1519.66
1575320298.216058,1502.21
1575320298.2283268,1489.19
1575320298.236313,1481.13
1575320298.244692,1473.78
1575320298.25363,1468.62
1575320298.265228,1465.4
1575320298.2731872,1462.2
1575320298.281583,1460.82
1575320298.293623,1461.95
1575320298.302718,1466.41
1575320298.3101811,1472.53
1575320298.31911,1477.55
1575320298.330683,1483.2
1575320298.3387148,1488.19
1575320298.347115,1491.91
1575320298.359435,1495.53
1575320298.368355,1497.83
1575320298.375757,1498.41
1575320298.3846028,1497.64
1575320298.396241,1495.94
1575320298.4042299,1495.03
1575320298.413022,1494.83
1575320298.4248629,1494.57
1575320298.433206,1494.9
1575320298.441279,1496.38
1575320298.453268,1498.75
1575320298.4615822,1500.8
1575320298.470449,1502.12
1575320298.478024,1503.55
1575320298.490252,1504.48
1575320298.498614,1504.62
1575320298.506593,1504.39
1575320298.515052,1505.07
1575320298.527286,1506.87
1575320298.536306,1510.33
1575320298.543485,1513.77
1575320298.5557592,1516.21
1575320298.56427,1518.52
1575320298.5721622,1520.02
1575320298.5807061,1520.68
1575320298.592912,1520.09
1575320298.601815,1516.27
1575320298.609238,1508.92
1575320298.6212668,1502.09
1575320298.629836,1495.44
1575320298.6384761,1493.31
1575320298.6461492,1493.85
1575320298.6584508,1494.28
1575320298.670003,1492.93
1575320298.67462,1491.16
1575320298.68743,1490.38
1575320298.695483,1493.16
1575320298.703829,1498.44
1575320298.7117481,1507.14
1575320298.7239091,1515.58
1575320298.732224,1520.7
1575320298.7402399,1524.11
1575320298.752938,1524.06
1575320298.7607522,1522.45
1575320298.769668,1520.48
1575320298.777112,1518.8
1575320298.789363,1515.9
1575320298.797835,1507.07
1575320298.80564,1492.0
1575320298.818764,1478.0
1575320298.826329,1462.08
1575320298.835148,1450.35
1575320298.842721,1443.38
1575320298.8547351,1440.98
1575320298.8631601,1441.11
1575320298.871785,1443.15
1575320298.884317,1444.52
1575320298.891884,1444.62
1575320298.900005,1443.31
1575320298.908288,1442.42
1575320298.920852,1442.83
1575320298.928714,1444.63
1575320298.937247,1446.51
1575320298.949607,1449.52
1575320298.957181,1452.6
1575320298.965672,1455.0
1575320298.9736462,1460.44
1575320298.986689,1472.7
1575320298.9940941,1487.77
1575320299.003256,1509.02
1575320299.014763,1526.57
1575320299.022816,1535.54
1575320299.031269,1541.81
1575320299.039219,1545.82
1575320299.0521002,1549.36
1575320299.059884,1553.97
1575320299.06872,1557.09
1575320299.0802739,1558.03
1575320299.08834,1558.15
1575320299.09674,1559.46
1575320299.104725,1563.6
1575320299.1177442,1568.49
1575320299.12531,1573.48
1575320299.1338649,1574.65
1575320299.145875,1572.58
1575320299.154112,1568.43
1575320299.162276,1565.16
1575320299.170811,1564.43
1575320299.182645,1565.59
1575320299.1907892,1567.98
1575320299.199185,1569.89
1575320299.2113972,1570.8
1575320299.220103,1569.3
1575320299.227587,1567.03
1575320299.2364428,1565.28
1575320299.2481642,1565.25
1575320299.256216,1565.37
1575320299.264672,1564.44
1575320299.2767181,1563.02
1575320299.285556,1563.32
1575320299.293452,1566.35
1575320299.302115,1572.28
1575320299.313717,1579.94
1575320299.321839,1585.85
1575320299.330085,1591.12
1575320299.342361,1594.03
1575320299.352024,1595.76
1575320299.358748,1597.53
1575320299.3681111,1598.5
1575320299.3794591,1598.68
1575320299.38746,1598.88
1575320299.395545,1598.2
1575320299.407914,1596.47
1575320299.4160771,1593.43
1575320299.424364,1591.44
1575320299.4326332,1591.03
1575320299.444764,1590.61
1575320299.453494,1587.64
1575320299.461042,1582.31
1575320299.473261,1572.2
1575320299.481719,1560.64
1575320299.4897869,1553.26
1575320299.4980009,1548.13
1575320299.5104089,1546.2
1575320299.51914,1545.69
1575320299.5267708,1544.9
1575320299.538814,1543.57
1575320299.547172,1540.82
1575320299.555218,1537.32
1575320299.563658,1531.98
1575320299.5758379,1527.32
1575320299.585498,1525.04
1575320299.5922072,1524.51
1575320299.604407,1525.24
1575320299.61294,1526.11
1575320299.621526,1526.49
1575320299.629162,1525.64
1575320299.641408,1523.9
1575320299.6497679,1520.54
1575320299.657668,1517.05
1575320299.670353,1516.06
1575320299.678425,1519.07
1575320299.6869388,1525.45
1575320299.694571,1530.8
1575320299.706911,1535.3
1575320299.715144,1535.28
1575320299.723218,1532.88
1575320299.7359319,1529.46
1575320299.7436512,1526.14
1575320299.752497,1523.07
1575320299.760246,1519.05
1575320299.7723231,1517.12
1575320299.780821,1518.6
1575320299.788791,1521.83
1575320299.801795,1527.11
1575320299.8093178,1532.35
1575320299.818453,1536.28
1575320299.82575,1541.09
1575320299.837878,1545.82
1575320299.8463628,1548.81
1575320299.854337,1549.74
1575320299.8665972,1547.65
1575320299.87487,1544.34
1575320299.883049,1537.27
1575320299.891399,1524.92
1575320299.904032,1510.92
1575320299.911812,1490.57
1575320299.9204779,1471.55
1575320299.932304,1459.18
1575320299.940314,1447.34
1575320299.9489331,1439.42
1575320299.956635,1435.66
1575320299.9696362,1434.31
1575320299.977201,1436.41
1575320299.9869719,1439.12
1575320299.9980218,1441.64
1575320300.005888,1443.19
1575320300.014299,1445.2
1575320300.02271,1448.25
1575320300.035153,1452.89
1575320300.0428941,1455.35
1575320300.051542,1454.93
1575320300.0632808,1452.56
1575320300.072075,1449.12
1575320300.079814,1445.85
1575320300.0877702,1443.52
1575320300.100157,1448.28
1575320300.108372,1460.02
1575320300.116551,1482.49
1575320300.128927,1507.23
1575320300.13745,1523.48
1575320300.145282,1535.99
1575320300.153806,1541.81
1575320300.1657898,1545.06
1575320300.173842,1549.77
1575320300.182217,1555.57
1575320300.194237,1560.45
1575320300.203091,1566.19
1575320300.211246,1570.3
1575320300.2199,1572.85
1575320300.231313,1576.28
1575320300.239316,1581.09
1575320300.247851,1586.35
1575320300.259777,1590.28
1575320300.2688892,1594.26
1575320300.276481,1596.0
1575320300.2854972,1595.04
1575320300.2968938,1592.07
1575320300.304847,1587.61
1575320300.3132129,1582.55
1575320300.325326,1575.38
1575320300.3339431,1571.15
1575320300.34186,1570.35
1575320300.350243,1570.31
1575320300.3623319,1569.36
1575320300.370815,1568.59
1575320300.378784,1570.99
1575320300.3908858,1579.88
1575320300.399272,1591.66
1575320300.40737,1611.44
1575320300.415636,1636.15
1575320300.427773,1656.8
1575320300.4367092,1678.84
1575320300.444541,1691.5
1575320300.45631,1692.1
1575320300.4647412,1680.85
1575320300.47278,1657.88
1575320300.4812071,1627.32
1575320300.4934762,1602.28
1575320300.5024881,1575.66
1575320300.509959,1556.56
1575320300.521861,1546.53
1575320300.530356,1537.94
1575320300.538282,1531.12
1575320300.5466182,1525.45
1575320300.558929,1518.61
1575320300.568053,1514.17
1575320300.575404,1513.51
1575320300.5876842,1515.88
1575320300.595819,1519.9
1575320300.604094,1522.39
1575320300.612184,1523.77
1575320300.6244428,1524.83
1575320300.6326988,1526.37
1575320300.6408372,1529.7
1575320300.653619,1533.57
