1575321286.55759,0.0
1575321286.565969,0.0
1575321286.5696042,0.0
1575321286.577513,0.0
1575321286.5816078,0.0
1575321286.5897431,0.0
1575321286.593844,0.0
1575321286.602098,0.0
1575321286.610137,13.24
1575321286.6143181,13.24
1575321286.622444,13.24
1575321286.630709,51.26
1575321286.639287,142.3
1575321286.647489,351.07
1575321286.65535,559.13
1575321286.663566,692.61
1575321286.671999,800.58
1575321286.679981,889.23
1575321286.6887412,963.13
1575321286.6964722,1025.34
1575321286.708454,1088.65
1575321286.716923,1137.58
1575321286.7249138,1167.66
1575321286.7378628,1195.41
1575321286.745558,1214.51
1575321286.7542882,1228.51
1575321286.761918,1255.64
1575321286.77404,1303.55
1575321286.782391,1368.93
1575321286.790398,1422.65
1575321286.804016,1476.55
1575321286.8110452,1509.87
1575321286.819823,1525.11
1575321286.827456,1537.2
1575321286.839482,1546.84
1575321286.848199,1552.86
1575321286.85618,1557.13
1575321286.8683362,1559.33
1575321286.876514,1561.72
1575321286.884723,1568.02
1575321286.892968,1577.17
1575321286.905697,1582.02
1575321286.9134989,1581.66
1575321286.9222028,1579.62
1575321286.934073,1584.42
1575321286.942061,1603.25
1575321286.950351,1631.65
1575321286.958289,1653.16
1575321286.971288,1670.24
1575321286.979118,1677.9
1575321286.987699,1680.9
1575321286.9994738,1681.67
1575321287.0074959,1677.56
1575321287.0163882,1669.51
1575321287.024082,1661.63
1575321287.037118,1651.47
1575321287.0445518,1643.63
1575321287.05346,1640.8
1575321287.065095,1641.3
1575321287.073034,1642.75
1575321287.081516,1641.0
1575321287.089847,1634.24
1575321287.1017878,1625.85
1575321287.109926,1621.2
1575321287.118242,1618.8
1575321287.130465,1617.46
1575321287.139044,1615.12
1575321287.147029,1611.5
1575321287.155936,1610.4
1575321287.167428,1611.95
1575321287.175453,1614.3
1575321287.18381,1614.18
1575321287.19596,1613.31
1575321287.204848,1615.48
1575321287.212485,1622.0
1575321287.220531,1628.58
1575321287.232876,1636.44
1575321287.241323,1642.74
1575321287.249129,1646.42
1575321287.2614741,1647.77
1575321287.269709,1649.27
1575321287.2778702,1651.79
1575321287.28626,1654.41
1575321287.298221,1658.38
1575321287.306944,1663.01
1575321287.3147252,1666.84
1575321287.3269498,1673.28
1575321287.3353019,1682.22
1575321287.343333,1689.97
1575321287.351597,1696.06
1575321287.3639622,1694.64
1575321287.37261,1688.33
1575321287.3801541,1677.18
1575321287.392589,1667.53
1575321287.401012,1663.57
1575321287.4096692,1663.15
1575321287.417139,1665.02
1575321287.4294012,1665.4
1575321287.4383209,1661.64
1575321287.445803,1653.75
1575321287.4580522,1647.1
1575321287.466305,1641.89
1575321287.474781,1639.62
1575321287.48278,1636.22
1575321287.4949398,1632.56
1575321287.504713,1631.02
1575321287.511332,1634.13
1575321287.523836,1637.11
1575321287.531719,1636.61
1575321287.540284,1630.9
1575321287.5483541,1625.55
1575321287.5607738,1620.68
1575321287.572957,1616.94
1575321287.576936,1613.68
1575321287.5892391,1608.84
1575321287.597497,1602.13
1575321287.606894,1593.96
1575321287.614014,1580.36
1575321287.626017,1565.73
1575321287.634393,1555.94
1575321287.6431308,1549.36
1575321287.655509,1549.39
1575321287.6628969,1553.12
1575321287.671545,1559.96
1575321287.67929,1564.76
1575321287.691506,1565.06
1575321287.6997828,1561.7
1575321287.70815,1556.42
1575321287.720602,1552.18
1575321287.728489,1550.63
1575321287.736794,1550.41
1575321287.7447438,1550.3
1575321287.757376,1548.98
1575321287.765336,1545.19
1575321287.773717,1539.2
1575321287.785859,1533.78
1575321287.793926,1527.94
1575321287.8023942,1524.46
1575321287.810548,1523.86
1575321287.823049,1525.83
1575321287.830847,1529.82
1575321287.839572,1532.87
1575321287.851265,1535.04
1575321287.859589,1535.27
1575321287.867734,1533.95
1575321287.875991,1532.06
1575321287.88897,1531.97
1575321287.896342,1534.12
1575321287.905232,1539.79
1575321287.916862,1547.03
1575321287.925243,1551.76
1575321287.933312,1554.02
1575321287.941495,1553.0
1575321287.954304,1552.48
1575321287.9618182,1554.44
1575321287.970926,1558.5
1575321287.9822872,1562.39
1575321287.990709,1564.43
1575321287.999083,1564.98
1575321288.0073411,1563.52
1575321288.019309,1561.24
1575321288.027455,1558.65
1575321288.035728,1558.77
1575321288.047897,1559.79
1575321288.056709,1558.43
1575321288.064579,1551.9
1575321288.0731788,1543.86
1575321288.0847301,1533.14
1575321288.093206,1525.18
1575321288.1011782,1521.56
1575321288.113499,1518.16
1575321288.12237,1513.45
1575321288.12992,1508.41
1575321288.139314,1503.25
1575321288.1504152,1501.6
1575321288.1586912,1502.7
1575321288.1667352,1505.06
1575321288.178934,1506.35
1575321288.189003,1505.13
1575321288.195333,1502.52
1575321288.2042398,1500.11
1575321288.216034,1501.77
1575321288.224509,1505.58
1575321288.2322292,1511.35
1575321288.2444742,1515.42
1575321288.252811,1516.7
1575321288.260832,1516.81
1575321288.269155,1517.25
1575321288.281518,1518.85
1575321288.2897651,1522.4
1575321288.2982242,1527.0
1575321288.310004,1530.4
1575321288.3182771,1532.14
1575321288.3265421,1528.65
1575321288.334761,1522.38
1575321288.347164,1512.89
1575321288.3554401,1503.96
1575321288.363373,1497.88
1575321288.375565,1493.15
1575321288.3838909,1493.29
1575321288.3919291,1497.2
1575321288.4002008,1506.06
1575321288.412544,1516.68
1575321288.4215739,1525.83
1575321288.428891,1530.07
1575321288.44157,1529.09
1575321288.449389,1520.2
1575321288.457837,1509.09
1575321288.4656599,1494.02
1575321288.478014,1482.3
1575321288.486309,1477.44
1575321288.4943612,1477.99
1575321288.507031,1485.27
1575321288.514859,1494.3
1575321288.523196,1505.52
1575321288.53123,1512.48
1575321288.5434701,1515.1
1575321288.551865,1517.84
1575321288.560362,1520.74
1575321288.573062,1520.71
1575321288.5803368,1515.36
1575321288.589592,1507.17
1575321288.596875,1503.13
1575321288.609272,1505.03
1575321288.617336,1515.63
1575321288.625561,1528.09
1575321288.638473,1543.73
1575321288.6460009,1555.59
1575321288.654271,1560.89
1575321288.6622999,1559.76
1575321288.674848,1551.45
1575321288.6829388,1535.63
1575321288.6913779,1520.46
1575321288.7048151,1503.4
1575321288.711457,1491.58
1575321288.721092,1486.62
1575321288.728172,1486.41
1575321288.740078,1491.76
1575321288.748493,1497.61
1575321288.756534,1504.31
1575321288.76895,1507.96
1575321288.777174,1507.6
1575321288.785872,1505.16
1575321288.793545,1504.55
1575321288.805944,1506.31
1575321288.814189,1510.42
1575321288.8225899,1513.44
1575321288.834465,1513.82
1575321288.8424819,1513.4
1575321288.85092,1513.76
1575321288.858916,1514.31
1575321288.8717718,1515.13
1575321288.879659,1515.57
1575321288.889052,1513.38
1575321288.8999429,1509.55
1575321288.908097,1503.77
1575321288.916393,1498.38
1575321288.924404,1494.63
1575321288.937475,1491.31
1575321288.945081,1491.39
1575321288.953815,1493.87
1575321288.965686,1497.5
1575321288.973547,1499.71
1575321288.981908,1499.51
1575321288.989994,1496.68
1575321289.002749,1492.59
1575321289.010457,1489.54
1575321289.0187142,1486.44
1575321289.031187,1484.84
1575321289.039664,1484.51
1575321289.0478091,1484.72
1575321289.056129,1486.58
1575321289.069779,1490.17
1575321289.076129,1495.8
1575321289.084318,1499.94
1575321289.096577,1500.7
1575321289.105574,1498.58
1575321289.112861,1492.55
1575321289.1217878,1481.88
1575321289.1335318,1471.38
1575321289.141597,1460.25
1575321289.1498659,1454.59
1575321289.1620018,1454.24
1575321289.17118,1457.19
1575321289.1786282,1461.71
1575321289.187396,1464.87
1575321289.199199,1466.82
1575321289.207146,1467.47
1575321289.215252,1469.27
1575321289.2277691,1475.55
1575321289.237238,1486.2
1575321289.244152,1495.08
1575321289.253338,1504.06
1575321289.264948,1509.53
1575321289.27334,1511.6
1575321289.281088,1511.47
1575321289.293098,1509.03
1575321289.301555,1505.92
1575321289.309531,1500.96
1575321289.317795,1495.64
1575321289.330157,1491.89
1575321289.338892,1488.69
1575321289.346686,1486.89
1575321289.358558,1486.25
1575321289.3670971,1487.05
1575321289.375011,1489.42
1575321289.3835032,1491.74
1575321289.395506,1492.83
1575321289.404308,1493.7
1575321289.4120178,1495.51
1575321289.4240608,1497.35
1575321289.4328861,1499.43
1575321289.4405608,1502.09
1575321289.449128,1505.42
1575321289.46103,1510.36
1575321289.4697988,1513.84
1575321289.477609,1514.1
1575321289.48963,1511.95
1575321289.498225,1508.83
1575321289.506685,1506.16
1575321289.51472,1502.31
1575321289.5267122,1498.95
1575321289.535031,1497.19
1575321289.542984,1495.76
1575321289.5556421,1494.71
1575321289.5636292,1493.88
1575321289.572109,1491.27
1575321289.5799549,1488.87
1575321289.5922408,1490.58
1575321289.600598,1496.56
1575321289.608475,1507.66
1575321289.621485,1517.3
1575321289.629211,1522.32
1575321289.637828,1526.23
1575321289.6455832,1527.84
1575321289.657621,1526.87
1575321289.6661701,1523.42
1575321289.673998,1519.26
1575321289.6871018,1516.09
1575321289.694668,1512.38
1575321289.703213,1508.68
1575321289.711016,1505.09
1575321289.723107,1501.16
1575321289.731921,1498.87
1575321289.740448,1497.61
1575321289.7520242,1494.96
1575321289.7602901,1489.53
1575321289.7683609,1484.71
1575321289.7766101,1479.54
1575321289.7892249,1475.78
1575321289.7970119,1473.07
1575321289.8056839,1468.05
1575321289.817701,1460.47
1575321289.82575,1451.54
1575321289.834081,1444.71
1575321289.841912,1438.04
1575321289.855016,1434.77
1575321289.8627641,1434.53
1575321289.871397,1434.87
1575321289.8831239,1433.84
1575321289.891086,1431.29
1575321289.899557,1426.95
1575321289.9075022,1425.28
1575321289.9204621,1426.66
1575321289.9282088,1429.33
1575321289.937259,1430.81
1575321289.948725,1430.44
1575321289.956597,1430.22
1575321289.965269,1430.92
1575321289.9733398,1431.83
1575321289.985556,1433.42
1575321289.993542,1434.7
1575321290.002841,1435.59
1575321290.014455,1436.13
1575321290.022825,1436.72
1575321290.030717,1438.62
1575321290.039247,1444.04
1575321290.051048,1450.14
1575321290.059051,1452.71
1575321290.0678568,1451.96
1575321290.079679,1450.76
1575321290.089209,1452.55
1575321290.0959969,1457.18
1575321290.105045,1465.25
1575321290.1165938,1471.33
1575321290.1245399,1472.35
1575321290.1329029,1468.75
1575321290.145269,1462.88
1575321290.15398,1459.87
1575321290.161655,1460.24
1575321290.17052,1462.86
1575321290.1822379,1464.63
1575321290.19063,1465.32
1575321290.1984608,1464.21
1575321290.21059,1463.0
1575321290.2189598,1462.34
1575321290.227189,1463.04
1575321290.235434,1464.51
1575321290.247735,1467.49
1575321290.2564428,1471.06
1575321290.2642891,1473.55
1575321290.276244,1476.09
1575321290.284483,1478.58
1575321290.292526,1480.02
1575321290.300993,1478.99
1575321290.313314,1475.37
1575321290.32231,1470.91
1575321290.32956,1467.75
1575321290.341697,1464.99
1575321290.350069,1465.32
1575321290.358096,1468.69
1575321290.366391,1475.57
1575321290.378737,1483.93
1575321290.38753,1488.97
1575321290.395085,1490.22
1575321290.407413,1486.58
1575321290.415603,1483.58
1575321290.4240158,1485.23
1575321290.431821,1495.3
1575321290.4442902,1507.22
1575321290.452389,1521.44
1575321290.460696,1530.14
1575321290.4727008,1532.1
1575321290.481442,1529.41
1575321290.489898,1524.82
1575321290.4975832,1523.97
1575321290.509824,1530.07
1575321290.518107,1543.82
1575321290.526047,1560.07
1575321290.534368,1570.55
1575321290.546759,1577.1
1575321290.55543,1577.28
1575321290.563354,1575.31
1575321290.575197,1572.08
1575321290.583578,1569.79
1575321290.5914931,1569.32
1575321290.599969,1570.26
1575321290.612022,1573.61
1575321290.6209621,1578.2
1575321290.628584,1584.74
1575321290.640627,1589.47
1575321290.649153,1590.28
1575321290.657047,1586.89
1575321290.665776,1580.33
1575321290.6777742,1575.02
1575321290.686348,1571.29
1575321290.6941519,1573.24
1575321290.7062201,1578.2
1575321290.714516,1586.58
1575321290.722933,1594.18
1575321290.731104,1597.23
1575321290.743362,1594.64
1575321290.7513978,1586.08
1575321290.7595541,1576.43
1575321290.772622,1571.72
1575321290.780129,1569.78
1575321290.788908,1568.55
1575321290.7966368,1566.12
1575321290.808584,1561.28
1575321290.817137,1555.9
1575321290.825058,1551.25
1575321290.8380191,1545.13
1575321290.8457239,1538.33
1575321290.854665,1531.34
1575321290.8622022,1521.2
1575321290.874156,1511.5
1575321290.882705,1504.96
1575321290.89061,1498.53
1575321290.9039621,1492.67
1575321290.9111629,1487.54
1575321290.919838,1482.21
1575321290.927692,1482.19
1575321290.94013,1486.45
1575321290.9483929,1493.57
1575321290.956492,1502.37
1575321290.9684951,1512.13
1575321290.976738,1527.77
1575321290.9849112,1547.29
1575321290.9931579,1571.19
1575321291.006061,1592.52
1575321291.013781,1621.56
1575321291.022253,1653.33
1575321291.034187,1679.08
1575321291.042121,1710.5
1575321291.050496,1742.11
1575321291.058461,1763.9
1575321291.071541,1776.42
1575321291.0792918,1769.35
1575321291.088059,1756.29
1575321291.0995798,1736.05
1575321291.10775,1713.55
1575321291.116141,1695.76
1575321291.12424,1669.1
1575321291.1374469,1628.79
1575321291.1446981,1588.59
1575321291.1537158,1544.02
1575321291.165349,1518.88
1575321291.173182,1509.84
1575321291.1817589,1498.59
1575321291.190518,1480.69
1575321291.201993,1466.86
1575321291.210217,1455.31
1575321291.218418,1446.67
1575321291.230557,1436.59
1575321291.239338,1427.54
1575321291.247256,1416.66
1575321291.256351,1407.74
1575321291.2676291,1404.63
1575321291.275535,1410.51
1575321291.28419,1425.32
1575321291.296075,1434.66
1575321291.305057,1436.23
1575321291.312696,1432.59
1575321291.321138,1432.56
1575321291.333094,1438.81
1575321291.341547,1446.93
1575321291.349589,1449.12
1575321291.3615549,1444.09
1575321291.370791,1435.59
1575321291.378247,1430.6
1575321291.387249,1426.29
1575321291.398572,1422.26
1575321291.4066718,1420.81
1575321291.4153411,1423.32
1575321291.427148,1428.26
1575321291.4363809,1431.21
1575321291.443724,1433.6
1575321291.4518661,1437.13
1575321291.4642482,1444.85
1575321291.472846,1454.1
1575321291.4807522,1467.62
1575321291.4928288,1479.83
1575321291.501193,1486.69
1575321291.509016,1490.32
1575321291.517447,1489.52
1575321291.529621,1487.76
1575321291.53835,1487.51
1575321291.546299,1491.45
1575321291.558141,1497.38
1575321291.566498,1505.97
1575321291.574604,1513.75
1575321291.582745,1518.85
1575321291.5950332,1524.24
1575321291.604666,1528.27
1575321291.6114402,1531.19
1575321291.623722,1535.8
1575321291.632195,1541.49
1575321291.6401432,1548.26
1575321291.6485848,1561.52
1575321291.660789,1576.96
1575321291.669606,1584.98
1575321291.677279,1585.47
1575321291.689715,1586.18
1575321291.697812,1600.95
1575321291.706296,1621.1
1575321291.714457,1645.93
1575321291.726142,1663.38
1575321291.734474,1671.56
1575321291.7425869,1675.39
1575321291.7555578,1678.17
1575321291.763266,1684.7
1575321291.771342,1696.15
1575321291.779839,1702.84
1575321291.791651,1699.76
1575321291.800135,1687.07
1575321291.808152,1672.52
1575321291.8212018,1665.36
1575321291.8287098,1665.02
1575321291.837682,1671.25
1575321291.845199,1676.16
1575321291.8572118,1675.78
1575321291.865825,1665.48
1575321291.873665,1653.49
1575321291.8872058,1641.33
1575321291.8942652,1636.47
1575321291.9034848,1637.36
1575321291.910639,1641.6
1575321291.922988,1644.83
1575321291.9313679,1641.87
1575321291.939709,1635.15
1575321291.9515982,1625.87
1575321291.959595,1619.81
1575321291.967953,1617.57
1575321291.976149,1615.44
1575321291.988831,1611.65
1575321291.996744,1606.48
1575321292.0056808,1597.77
1575321292.017388,1589.44
1575321292.025207,1586.35
1575321292.033515,1588.87
1575321292.041536,1593.23
1575321292.054528,1592.77
1575321292.06226,1586.72
1575321292.071875,1577.96
1575321292.0828679,1570.39
1575321292.091234,1561.92
1575321292.098925,1555.79
1575321292.107093,1552.85
1575321292.1204438,1550.98
1575321292.127805,1550.44
1575321292.1369119,1551.33
1575321292.14865,1553.94
1575321292.1566248,1556.33
1575321292.164822,1556.04
1575321292.173304,1553.2
1575321292.185048,1546.63
1575321292.1932402,1538.85
1575321292.201486,1534.43
1575321292.213639,1533.83
1575321292.222274,1539.41
1575321292.2302349,1546.47
1575321292.238854,1554.99
1575321292.2505221,1561.21
1575321292.258674,1564.41
1575321292.267169,1565.96
1575321292.27907,1564.49
1575321292.288089,1562.32
1575321292.2958028,1559.97
1575321292.304501,1558.83
1575321292.316328,1558.44
1575321292.324217,1557.91
1575321292.332591,1556.64
1575321292.3447978,1554.51
1575321292.353763,1549.87
1575321292.361134,1543.24
1575321292.3698912,1538.53
1575321292.38184,1535.6
1575321292.389914,1534.68
1575321292.398392,1533.05
1575321292.4102578,1532.54
1575321292.418565,1536.22
1575321292.426642,1543.87
1575321292.4350002,1549.86
1575321292.447384,1553.87
1575321292.456287,1554.17
1575321292.46365,1554.98
1575321292.475744,1562.22
1575321292.484164,1578.47
1575321292.492165,1594.92
1575321292.500572,1616.36
1575321292.512811,1635.79
1575321292.5212202,1646.16
1575321292.529273,1650.19
1575321292.5412102,1645.49
1575321292.5497441,1637.83
1575321292.557628,1627.21
1575321292.566129,1618.37
1575321292.578254,1615.24
1575321292.587532,1614.94
1575321292.5945249,1611.13
1575321292.6068769,1602.0
1575321292.614971,1584.89
1575321292.623651,1569.33
1575321292.6318452,1562.43
1575321292.64373,1564.04
1575321292.651956,1571.39
1575321292.660192,1580.06
1575321292.672897,1586.31
1575321292.6808372,1591.31
1575321292.689733,1591.29
1575321292.697108,1587.12
1575321292.709149,1578.74
1575321292.717673,1571.61
1575321292.72575,1569.09
1575321292.738592,1570.14
1575321292.746421,1575.86
1575321292.755108,1582.55
1575321292.762773,1590.82
1575321292.7746959,1596.73
1575321292.783204,1598.59
1575321292.791251,1598.04
1575321292.804207,1596.59
1575321292.8118799,1596.55
1575321292.8204072,1598.79
1575321292.828144,1602.2
1575321292.840236,1603.9
1575321292.848617,1603.56
1575321292.856735,1600.17
1575321292.869059,1594.93
1575321292.87728,1590.83
1575321292.8864262,1587.45
1575321292.893752,1586.33
1575321292.906194,1586.79
1575321292.914391,1588.45
1575321292.9229481,1590.07
1575321292.93455,1589.67
1575321292.94282,1584.53
1575321292.9510489,1573.12
1575321292.9592571,1561.13
1575321292.9718049,1546.65
1575321292.9798322,1535.59
1575321292.988014,1529.47
1575321293.000235,1524.72
1575321293.008298,1521.82
1575321293.016723,1519.99
1575321293.0246,1516.92
1575321293.0377522,1513.45
1575321293.0454001,1512.03
1575321293.054389,1514.41
1575321293.0659451,1520.75
1575321293.073726,1526.83
1575321293.082099,1532.49
1575321293.090228,1534.29
1575321293.103476,1532.09
1575321293.110728,1528.89
1575321293.11902,1525.4
1575321293.131519,1523.64
1575321293.140116,1523.26
1575321293.147806,1523.13
1575321293.156119,1521.55
1575321293.168206,1518.56
1575321293.176297,1512.7
1575321293.184617,1507.23
1575321293.196713,1505.51
1575321293.205466,1507.62
1575321293.2133389,1514.6
1575321293.2220721,1521.45
1575321293.233717,1528.49
1575321293.2416399,1532.61
1575321293.250039,1534.04
1575321293.262239,1534.05
1575321293.270976,1532.81
1575321293.278792,1531.19
1575321293.287523,1527.8
1575321293.299358,1522.93
1575321293.3071759,1519.35
1575321293.315555,1517.35
1575321293.327724,1517.74
1575321293.337858,1518.24
1575321293.344322,1517.79
1575321293.353517,1517.37
1575321293.364934,1517.87
1575321293.373234,1517.8
1575321293.3813682,1514.95
1575321293.393266,1510.27
1575321293.401579,1508.22
1575321293.409811,1509.28
1575321293.418127,1513.47
1575321293.4304261,1517.11
1575321293.4390771,1520.24
1575321293.446709,1520.33
1575321293.4587991,1518.7
1575321293.467306,1516.78
1575321293.4753878,1515.77
1575321293.4834602,1516.29
1575321293.495873,1519.03
1575321293.504631,1523.22
1575321293.512301,1526.98
1575321293.524255,1531.37
1575321293.532942,1534.42
1575321293.540687,1535.0
1575321293.549103,1534.26
1575321293.561249,1537.57
1575321293.5707588,1549.29
1575321293.577725,1562.43
1575321293.589837,1577.47
1575321293.598219,1586.38
1575321293.607022,1588.65
1575321293.6144269,1587.55
1575321293.626752,1584.86
1575321293.635021,1583.8
1575321293.643122,1584.72
1575321293.655802,1587.81
1575321293.6639569,1590.75
1575321293.6724968,1593.46
1575321293.6803,1595.23
1575321293.692953,1596.37
1575321293.7005749,1597.19
1575321293.708603,1596.72
1575321293.721719,1595.63
1575321293.729311,1594.61
1575321293.737942,1594.02
1575321293.745833,1593.51
1575321293.7584472,1592.57
1575321293.766177,1589.65
1575321293.774179,1585.8
1575321293.78773,1580.2
1575321293.794832,1575.95
1575321293.803993,1573.84
1575321293.811091,1571.95
1575321293.823285,1568.87
1575321293.832085,1565.99
1575321293.839964,1563.86
1575321293.852201,1561.6
1575321293.8602939,1559.44
1575321293.868557,1557.21
1575321293.876574,1554.69
1575321293.889442,1555.22
1575321293.897493,1558.02
1575321293.906303,1561.37
1575321293.9177668,1561.95
1575321293.9256918,1560.2
1575321293.9343,1556.46
1575321293.942153,1553.22
1575321293.9551349,1552.99
1575321293.96284,1556.52
1575321293.971162,1562.29
1575321293.983232,1566.18
1575321293.9913971,1568.25
1575321293.999737,1566.96
1575321294.007593,1564.35
1575321294.0211189,1560.47
1575321294.0283918,1556.41
1575321294.0372229,1551.46
1575321294.048733,1546.6
1575321294.056812,1541.65
1575321294.066237,1539.2
1575321294.0740979,1538.74
1575321294.0861871,1538.06
1575321294.093726,1533.5
1575321294.1019871,1526.04
1575321294.114283,1514.23
1575321294.122962,1505.71
1575321294.13062,1505.23
1575321294.1394749,1512.39
1575321294.151317,1522.49
1575321294.159301,1528.86
1575321294.16776,1533.63
1575321294.179779,1534.37
1575321294.1887622,1532.72
1575321294.196349,1530.01
1575321294.205025,1528.38
1575321294.216566,1528.58
1575321294.226166,1529.95
1575321294.233381,1529.83
1575321294.2452202,1526.35
1575321294.257496,1516.9
1575321294.261805,1505.05
1575321294.270474,1494.9
1575321294.282293,1490.12
1575321294.290335,1489.54
1575321294.29871,1493.64
1575321294.3109171,1498.52
1575321294.319894,1504.12
1575321294.327362,1507.37
1575321294.335517,1508.08
1575321294.348178,1507.34
1575321294.3567061,1506.6
1575321294.364245,1507.61
1575321294.3764532,1511.95
1575321294.384628,1517.13
1575321294.392836,1519.33
1575321294.4011688,1518.02
1575321294.4133031,1513.19
1575321294.421901,1509.0
1575321294.429912,1505.53
1575321294.441816,1505.2
1575321294.4501739,1507.41
1575321294.4582028,1512.24
1575321294.466683,1517.31
1575321294.478954,1519.89
1575321294.487728,1520.58
1575321294.495362,1520.11
1575321294.5073211,1520.25
1575321294.5156622,1520.64
1575321294.523726,1520.8
1575321294.532151,1521.24
1575321294.544399,1521.98
1575321294.553649,1522.52
1575321294.560906,1521.31
1575321294.571349,1517.72
1575321294.581563,1510.57
1575321294.589399,1503.26
1575321294.5975711,1498.89
1575321294.609705,1496.81
1575321294.6180549,1498.62
1575321294.6262631,1501.58
1575321294.63447,1503.95
1575321294.64694,1502.83
1575321294.6558862,1499.54
1575321294.6632261,1493.65
1575321294.675305,1486.69
1575321294.683798,1481.49
1575321294.691992,1477.03
1575321294.699968,1474.63
1575321294.71242,1473.36
1575321294.7216718,1471.9
1575321294.728847,1470.81
1575321294.740837,1471.54
1575321294.749214,1473.46
1575321294.75757,1475.84
1575321294.765663,1477.87
1575321294.7779698,1480.13
1575321294.786117,1484.15
1575321294.794209,1487.67
1575321294.806714,1489.71
1575321294.8148868,1490.75
1575321294.822986,1490.16
1575321294.8312871,1488.88
1575321294.843416,1486.16
1575321294.851765,1482.11
1575321294.859682,1478.67
1575321294.8725262,1475.92
1575321294.880424,1476.65
1575321294.889298,1479.99
1575321294.89677,1485.54
1575321294.908799,1490.64
1575321294.917203,1494.98
1575321294.925225,1502.12
1575321294.937887,1512.0
1575321294.945869,1521.9
1575321294.954875,1536.57
1575321294.962344,1551.57
1575321294.974325,1564.14
1575321294.982825,1571.63
1575321294.991263,1577.23
1575321295.0039418,1579.49
1575321295.0114439,1580.5
1575321295.019644,1582.43
1575321295.027771,1586.16
1575321295.039884,1589.68
1575321295.048539,1592.99
1575321295.057062,1593.53
1575321295.0700018,1592.3
1575321295.076865,1590.19
1575321295.0850282,1587.79
1575321295.09311,1585.4
1575321295.1060538,1582.45
1575321295.113643,1580.02
1575321295.1227992,1578.34
1575321295.134153,1576.38
1575321295.142277,1576.89
1575321295.150592,1581.74
1575321295.158612,1596.13
1575321295.1716568,1620.62
1575321295.1792798,1644.88
1575321295.188034,1675.18
1575321295.199887,1700.0
1575321295.208025,1717.71
1575321295.2163022,1727.88
1575321295.224264,1737.54
1575321295.2377658,1744.14
1575321295.244887,1746.86
1575321295.2537348,1746.41
1575321295.2653089,1741.05
1575321295.2737868,1733.43
1575321295.28191,1721.35
1575321295.2900832,1709.65
1575321295.302298,1702.58
1575321295.310326,1696.83
1575321295.318503,1693.47
1575321295.331143,1692.09
1575321295.339496,1692.06
1575321295.347567,1692.49
1575321295.3560221,1690.8
1575321295.3678238,1685.04
1575321295.3758662,1676.74
1575321295.384254,1670.77
1575321295.396208,1666.94
1575321295.404979,1667.58
1575321295.4129422,1670.23
1575321295.422127,1673.78
1575321295.433175,1675.26
1575321295.4412348,1670.14
1575321295.449885,1658.54
1575321295.4616818,1633.82
1575321295.470939,1602.05
1575321295.478354,1577.72
1575321295.487844,1555.15
1575321295.4988139,1542.39
1575321295.506824,1536.55
1575321295.51533,1531.16
1575321295.52729,1524.95
1575321295.5365582,1517.8
1575321295.543896,1505.94
1575321295.552017,1494.05
1575321295.56449,1486.85
1575321295.573295,1481.93
1575321295.58065,1480.91
1575321295.592938,1481.37
1575321295.6011689,1480.46
1575321295.609217,1476.25
1575321295.617683,1471.86
1575321295.629802,1467.65
1575321295.638551,1465.95
1575321295.646344,1466.11
1575321295.6583161,1467.37
1575321295.667031,1468.86
1575321295.674751,1469.85
1575321295.6833248,1470.24
1575321295.695431,1470.04
1575321295.704152,1468.76
1575321295.7118962,1467.64
1575321295.723851,1466.79
1575321295.7321699,1467.01
1575321295.740572,1467.48
1575321295.748682,1467.42
1575321295.7608,1468.03
1575321295.770047,1469.1
1575321295.777365,1470.72
1575321295.7899232,1476.23
1575321295.798112,1489.1
1575321295.806491,1521.25
1575321295.814364,1570.32
1575321295.826304,1615.35
1575321295.834744,1667.16
1575321295.842659,1704.78
1575321295.85565,1723.94
1575321295.8633118,1737.99
1575321295.872113,1745.48
1575321295.8798878,1748.95
1575321295.8921542,1752.15
1575321295.90011,1754.27
1575321295.908222,1754.89
1575321295.921779,1754.48
1575321295.928892,1752.68
1575321295.937619,1750.46
1575321295.9453921,1749.08
1575321295.9573162,1747.6
1575321295.965825,1744.98
1575321295.9743092,1741.11
1575321295.9877,1734.94
1575321295.994411,1727.92
1575321296.002683,1722.5
1575321296.010824,1717.45
1575321296.023455,1713.56
1575321296.031484,1710.55
1575321296.039683,1706.43
1575321296.0518138,1698.46
1575321296.0598881,1687.67
1575321296.068204,1671.89
1575321296.07617,1658.35
1575321296.0889258,1650.27
1575321296.0967522,1641.0
1575321296.105587,1631.71
1575321296.1171641,1624.11
1575321296.12533,1614.6
1575321296.133564,1605.9
1575321296.141706,1598.32
1575321296.154766,1593.67
1575321296.1624398,1590.49
1575321296.171393,1588.9
1575321296.182786,1587.27
1575321296.1908941,1583.66
1575321296.199148,1579.34
1575321296.207254,1579.01
1575321296.220495,1589.59
1575321296.227814,1615.69
1575321296.237449,1644.4
1575321296.2487411,1681.11
1575321296.2574852,1710.16
1575321296.2648509,1725.7
1575321296.2731268,1737.78
1575321296.285311,1745.42
1575321296.293685,1749.98
1575321296.301662,1753.32
1575321296.31378,1753.6
1575321296.3225138,1752.37
1575321296.3302379,1750.77
1575321296.339009,1750.57
1575321296.350881,1751.48
1575321296.358793,1753.02
1575321296.367163,1753.6
1575321296.3792682,1751.9
1575321296.388177,1748.65
1575321296.395995,1743.26
1575321296.40517,1736.04
1575321296.416569,1728.83
1575321296.424408,1719.05
1575321296.432639,1709.57
1575321296.4449139,1703.53
1575321296.453727,1699.17
1575321296.461405,1695.48
1575321296.470471,1688.66
1575321296.481856,1671.23
1575321296.49011,1646.61
1575321296.498493,1625.56
1575321296.510324,1602.13
1575321296.518647,1583.28
1575321296.5268931,1570.78
1575321296.5350862,1557.46
1575321296.547563,1547.91
1575321296.55647,1543.59
1575321296.5638368,1544.12
1575321296.575934,1553.03
1575321296.584738,1565.16
1575321296.5922391,1581.17
1575321296.6007109,1592.56
1575321296.612743,1596.68
1575321296.622185,1596.98
1575321296.629162,1597.35
1575321296.641367,1599.59
1575321296.649856,1602.47
1575321296.657867,1605.17
1575321296.666124,1603.73
1575321296.678417,1599.09
1575321296.6877172,1591.2
1575321296.694958,1584.16
1575321296.7069519,1577.75
1575321296.7153778,1561.77
1575321296.7236118,1527.15
1575321296.7320058,1481.58
1575321296.743825,1405.83
1575321296.752525,1322.4
1575321296.760415,1261.45
1575321296.7730932,1202.56
1575321296.780968,1165.77
1575321296.7896261,1149.14
1575321296.797517,1136.04
1575321296.809299,1124.72
1575321296.817728,1115.21
1575321296.825728,1103.88
1575321296.8386261,1096.31
1575321296.846387,1094.47
1575321296.855237,1095.6
1575321296.862908,1097.56
1575321296.8748631,1099.47
1575321296.8834062,1100.97
1575321296.891268,1101.18
1575321296.904543,1099.42
1575321296.911788,1098.53
1575321296.920661,1099.33
1575321296.928145,1099.97
1575321296.940425,1098.57
1575321296.948975,1094.64
1575321296.956966,1091.48
1575321296.969354,1091.54
1575321296.977408,1095.21
1575321296.9856288,1100.53
1575321296.993844,1103.93
1575321297.006369,1107.58
1575321297.01454,1112.14
1575321297.0237381,1115.94
1575321297.0347352,1119.94
1575321297.042895,1123.93
1575321297.0513349,1128.07
1575321297.059249,1134.35
1575321297.072574,1140.02
1575321297.079987,1144.37
1575321297.088667,1149.58
1575321297.100321,1164.65
1575321297.10835,1192.85
1575321297.116776,1223.32
1575321297.124894,1264.46
1575321297.137984,1301.46
1575321297.14539,1324.26
1575321297.154391,1343.16
1575321297.1660469,1354.56
1575321297.173934,1361.66
1575321297.182281,1370.74
1575321297.1909251,1380.42
1575321297.202822,1387.47
1575321297.210718,1393.51
1575321297.219648,1396.73
1575321297.231698,1399.62
1575321297.239945,1406.73
1575321297.2480278,1417.01
1575321297.257038,1425.23
1575321297.26826,1433.87
1575321297.27629,1441.19
1575321297.2846751,1447.06
1575321297.297003,1454.68
1575321297.3057122,1461.21
1575321297.313453,1465.2
1575321297.32223,1466.36
1575321297.333819,1466.36
1575321297.341922,1465.71
1575321297.350085,1463.71
1575321297.3625479,1457.09
1575321297.371823,1447.15
1575321297.3788989,1438.81
1575321297.387669,1430.1
1575321297.3993971,1424.54
1575321297.407551,1422.78
1575321297.415686,1423.67
1575321297.427936,1425.27
1575321297.4372501,1425.09
1575321297.4444108,1422.24
1575321297.4528809,1417.75
1575321297.4651892,1413.69
1575321297.4738271,1410.05
1575321297.481639,1408.22
1575321297.4933991,1407.37
1575321297.501801,1409.58
1575321297.5097442,1422.85
1575321297.5184,1446.43
1575321297.530333,1491.27
1575321297.5392032,1542.53
1575321297.5469272,1586.79
1575321297.5588732,1612.45
1575321297.567212,1633.63
1575321297.575449,1647.5
1575321297.583584,1656.25
1575321297.59609,1664.71
1575321297.6048808,1668.58
1575321297.61218,1668.35
1575321297.624487,1666.2
1575321297.632758,1665.08
1575321297.640861,1666.29
1575321297.649194,1670.05
1575321297.661561,1673.8
1575321297.670631,1675.52
1575321297.677912,1677.11
1575321297.69018,1678.25
1575321297.698551,1677.23
1575321297.70709,1672.62
1575321297.714748,1665.07
1575321297.727034,1659.22
1575321297.7353868,1654.88
1575321297.743314,1653.57
1575321297.7559612,1652.7
1575321297.764195,1649.59
1575321297.772697,1644.7
1575321297.7803478,1641.49
1575321297.7923892,1641.44
1575321297.800769,1641.68
1575321297.808769,1639.7
1575321297.821888,1636.22
1575321297.82942,1627.01
1575321297.838051,1606.46
1575321297.845988,1578.43
1575321297.857892,1528.68
1575321297.866495,1469.59
1575321297.874327,1424.03
1575321297.886831,1377.34
1575321297.8949819,1345.82
1575321297.904105,1329.55
1575321297.9113889,1315.72
1575321297.923696,1305.11
1575321297.93206,1297.12
1575321297.940778,1287.6
1575321297.9522922,1280.57
1575321297.960364,1277.51
1575321297.9686458,1276.63
1575321297.976976,1278.13
1575321297.9890199,1280.32
1575321297.997777,1283.73
1575321298.006196,1288.12
1575321298.0184388,1293.22
1575321298.0259619,1297.47
1575321298.0343418,1302.82
1575321298.0422661,1308.82
1575321298.055082,1314.06
1575321298.0629919,1319.19
1575321298.071698,1320.56
1575321298.083236,1318.92
1575321298.0914419,1314.86
1575321298.099911,1311.15
1575321298.107904,1310.46
1575321298.121473,1312.79
1575321298.128334,1317.37
1575321298.137759,1322.01
1575321298.149261,1328.26
1575321298.156977,1333.71
1575321298.165557,1338.49
1575321298.174172,1352.3
1575321298.186347,1386.99
1575321298.194035,1435.02
1575321298.202146,1520.43
1575321298.214483,1626.02
1575321298.223192,1715.08
1575321298.230885,1820.39
1575321298.2393548,1910.2
1575321298.251483,1978.51
1575321298.2594938,2014.92
1575321298.267835,2036.98
1575321298.279972,2034.18
1575321298.288769,2015.69
1575321298.2966049,1976.45
1575321298.305281,1927.2
1575321298.316907,1886.09
1575321298.324936,1836.14
1575321298.333502,1790.93
1575321298.3453498,1760.12
1575321298.354485,1729.22
1575321298.361923,1706.4
1575321298.3708081,1693.02
1575321298.382485,1680.47
1575321298.3904269,1669.55
1575321298.398974,1659.44
1575321298.411056,1644.33
1575321298.419221,1629.22
1575321298.427571,1619.64
1575321298.4356968,1611.26
1575321298.448112,1606.1
1575321298.456913,1603.39
1575321298.464418,1600.65
1575321298.476659,1597.42
1575321298.485019,1592.7
1575321298.493035,1588.28
1575321298.501371,1584.81
1575321298.513524,1584.9
1575321298.522327,1585.03
1575321298.529967,1580.32
1575321298.541944,1568.08
1575321298.550327,1554.96
1575321298.558371,1539.53
1575321298.566863,1528.36
1575321298.5790231,1523.32
1575321298.587911,1521.59
1575321298.5953999,1522.35
1575321298.604291,1521.91
1575321298.6158211,1518.64
1575321298.62405,1514.42
1575321298.632263,1512.43
1575321298.644595,1512.25
1575321298.654,1512.52
1575321298.6610181,1511.56
1575321298.669088,1508.36
1575321298.681638,1502.74
1575321298.6900291,1496.84
1575321298.698207,1487.93
1575321298.7100039,1479.4
1575321298.718302,1474.6
1575321298.726285,1474.41
1575321298.7349482,1477.81
1575321298.746964,1483.9
1575321298.755806,1488.41
1575321298.763403,1490.01
1575321298.775397,1486.13
1575321298.7838972,1480.79
1575321298.7920032,1474.15
1575321298.800147,1469.8
1575321298.812594,1468.88
1575321298.821585,1471.59
1575321298.8289459,1477.91
1575321298.840933,1484.38
1575321298.849462,1491.78
1575321298.857978,1495.34
1575321298.865608,1494.96
1575321298.8781078,1492.39
1575321298.8862772,1489.83
1575321298.894457,1489.0
1575321298.907396,1490.26
1575321298.9148748,1494.84
1575321298.9232209,1500.46
1575321298.931607,1508.12
1575321298.94347,1514.28
1575321298.951937,1517.79
1575321298.959829,1517.59
1575321298.972714,1513.1
1575321298.980587,1505.44
1575321298.989738,1499.73
1575321298.996835,1497.08
1575321299.008926,1499.25
1575321299.01736,1502.16
1575321299.025473,1504.71
1575321299.038541,1503.59
1575321299.046106,1500.16
1575321299.054903,1494.2
1575321299.0625331,1487.75
1575321299.07445,1483.0
1575321299.083137,1479.01
1575321299.090935,1479.78
1575321299.10365,1485.02
1575321299.111336,1495.47
1575321299.120991,1505.5
1575321299.1277282,1510.23
1575321299.14011,1511.6
1575321299.148566,1510.77
1575321299.156866,1511.06
1575321299.168819,1513.43
1575321299.176949,1516.0
1575321299.185243,1516.85
1575321299.19343,1517.32
1575321299.206221,1521.03
1575321299.2140632,1529.21
1575321299.2233338,1536.93
1575321299.234554,1544.21
1575321299.242402,1546.64
1575321299.25091,1545.99
1575321299.258871,1542.97
1575321299.271965,1538.0
1575321299.279522,1532.99
1575321299.288401,1526.98
1575321299.30009,1523.69
1575321299.307947,1523.76
1575321299.3165178,1525.96
1575321299.32437,1528.98
1575321299.3375318,1531.35
1575321299.345025,1532.55
1575321299.3543181,1530.36
1575321299.3656142,1526.64
1575321299.373877,1521.6
1575321299.382089,1519.87
1575321299.390939,1522.57
1575321299.402254,1528.42
1575321299.410506,1528.19
1575321299.418721,1514.3
1575321299.4311,1492.86
1575321299.439713,1458.63
1575321299.447638,1425.94
1575321299.456199,1406.41
1575321299.467905,1391.81
1575321299.476044,1385.18
1575321299.484375,1383.25
1575321299.496319,1384.08
1575321299.50531,1388.86
1575321299.5129442,1394.24
1575321299.521697,1400.4
1575321299.533504,1405.86
1575321299.5415208,1409.06
1575321299.5499918,1409.26
1575321299.561882,1404.19
1575321299.5710561,1398.22
1575321299.5786839,1393.84
1575321299.5884101,1398.37
1575321299.598817,1408.51
1575321299.60709,1424.24
1575321299.615246,1437.45
1575321299.627459,1445.18
1575321299.635793,1452.36
1575321299.6439471,1456.96
1575321299.6521971,1458.25
1575321299.66483,1456.91
1575321299.673446,1454.81
1575321299.680937,1454.59
1575321299.692987,1455.65
1575321299.701374,1457.85
1575321299.709343,1460.42
1575321299.717889,1462.93
1575321299.730104,1466.15
1575321299.738982,1467.9
1575321299.746453,1467.86
1575321299.758501,1467.36
1575321299.7670028,1467.97
1575321299.774984,1469.83
1575321299.783484,1477.11
1575321299.7955132,1492.15
1575321299.804149,1507.87
1575321299.812057,1526.28
1575321299.824034,1538.69
1575321299.832366,1544.49
1575321299.8405929,1550.4
1575321299.848918,1558.22
1575321299.861015,1566.62
1575321299.869269,1578.91
1575321299.877484,1590.24
1575321299.8901398,1597.96
1575321299.8982148,1600.06
1575321299.906813,1595.66
1575321299.914599,1584.6
1575321299.926501,1575.1
1575321299.934946,1567.95
1575321299.942894,1567.45
1575321299.956087,1570.76
1575321299.9635231,1577.27
1575321299.972258,1583.27
1575321299.979935,1586.44
1575321299.991963,1589.25
1575321300.000382,1593.15
1575321300.008492,1596.63
1575321300.022208,1599.21
1575321300.029071,1598.11
1575321300.038091,1595.78
1575321300.045507,1594.97
1575321300.0575,1600.1
1575321300.066005,1608.71
1575321300.074004,1622.37
1575321300.087879,1634.98
1575321300.09466,1641.21
1575321300.1034591,1642.5
1575321300.110773,1638.28
1575321300.1237261,1632.01
1575321300.131593,1627.74
1575321300.140249,1625.86
1575321300.151805,1627.73
1575321300.160152,1629.56
1575321300.168513,1629.43
1575321300.176386,1627.05
1575321300.189315,1625.06
1575321300.197212,1623.45
1575321300.206443,1622.19
1575321300.217403,1619.69
1575321300.225505,1610.92
1575321300.2338839,1595.5
1575321300.241981,1581.81
1575321300.254817,1567.21
1575321300.262603,1557.14
1575321300.27124,1552.37
1575321300.2832682,1549.04
1575321300.291125,1546.01
1575321300.299308,1542.53
1575321300.30741,1536.38
1575321300.319905,1530.67
1575321300.328213,1528.31
1575321300.336808,1529.38
1575321300.3488839,1532.81
1575321300.357169,1534.49
1575321300.36507,1533.07
1575321300.3729448,1528.78
1575321300.3854568,1523.7
1575321300.3935869,1519.86
1575321300.4018612,1515.97
1575321300.413944,1512.31
1575321300.4230368,1507.86
1575321300.43055,1500.07
1575321300.4392672,1492.33
1575321300.450866,1488.32
1575321300.4589891,1486.36
1575321300.467318,1485.73
1575321300.4795232,1484.93
1575321300.488173,1483.67
1575321300.4959402,1482.02
1575321300.50415,1480.36
1575321300.516365,1479.72
1575321300.524479,1481.97
1575321300.5328262,1485.4
1575321300.545176,1490.62
1575321300.554263,1496.35
1575321300.561546,1500.45
1575321300.570561,1503.48
1575321300.582131,1503.83
1575321300.59011,1501.5
1575321300.598561,1498.02
1575321300.610611,1492.94
1575321300.6188061,1488.66
1575321300.6269739,1485.81
1575321300.635343,1481.28
1575321300.6474712,1474.69
1575321300.656132,1468.95
1575321300.664118,1462.88
1575321300.676175,1459.59
1575321300.684546,1459.55
1575321300.69242,1462.9
1575321300.700804,1468.65
1575321300.7131279,1472.88
1575321300.7219782,1475.28
1575321300.7296362,1473.02
1575321300.741555,1468.28
1575321300.7501261,1462.32
1575321300.7579389,1458.97
1575321300.766504,1457.83
1575321300.7786722,1457.5
1575321300.7879329,1458.04
1575321300.795082,1458.73
1575321300.807049,1459.66
1575321300.8157141,1460.61
1575321300.82422,1460.96
1575321300.83199,1461.15
1575321300.84413,1462.16
1575321300.852281,1465.99
1575321300.860569,1471.71
1575321300.873224,1482.22
1575321300.881191,1494.91
1575321300.889745,1504.13
1575321300.897519,1511.32
1575321300.909478,1513.15
1575321300.9181209,1512.53
1575321300.926045,1511.24
1575321300.939013,1510.74
1575321300.946652,1511.46
1575321300.955648,1514.82
1575321300.9630249,1520.9
1575321300.97504,1526.88
1575321300.98364,1533.91
1575321300.991441,1538.19
1575321301.0044081,1539.36
1575321301.012083,1538.68
1575321301.022062,1537.3
1575321301.028573,1536.03
1575321301.040577,1534.89
1575321301.049373,1535.4
1575321301.057062,1536.59
1575321301.06951,1536.98
1575321301.077386,1535.3
1575321301.086752,1531.12
1575321301.093888,1526.91
1575321301.106624,1521.93
1575321301.114434,1518.61
1575321301.1231658,1518.68
1575321301.134963,1522.62
1575321301.142978,1527.26
1575321301.151568,1529.19
1575321301.159408,1530.04
1575321301.172462,1533.27
1575321301.180119,1538.76
1575321301.1888351,1547.18
1575321301.200526,1557.43
1575321301.2086341,1567.6
1575321301.217097,1582.27
1575321301.225068,1595.94
1575321301.238104,1604.19
1575321301.24543,1610.04
1575321301.255397,1611.39
1575321301.266044,1610.76
1575321301.274131,1609.04
1575321301.282536,1606.82
1575321301.290996,1602.8
1575321301.303894,1597.32
1575321301.311061,1588.75
1575321301.3192441,1581.31
1575321301.331656,1578.77
1575321301.3401659,1580.73
1575321301.348062,1585.08
1575321301.356714,1587.72
1575321301.3685682,1587.9
1575321301.376589,1583.88
1575321301.384976,1578.61
1575321301.3970509,1570.83
1575321301.406017,1562.53
1575321301.413615,1555.88
1575321301.4224079,1548.79
1575321301.433975,1544.83
1575321301.442013,1544.36
1575321301.450455,1546.09
1575321301.4625359,1547.84
1575321301.471383,1548.49
1575321301.479126,1547.9
1575321301.4881248,1543.9
1575321301.499516,1537.65
1575321301.50809,1527.69
1575321301.515692,1518.69
1575321301.528254,1513.59
1575321301.5363488,1512.27
1575321301.544595,1512.65
1575321301.553889,1513.99
1575321301.565303,1515.97
1575321301.573925,1519.27
1575321301.581416,1522.64
1575321301.593715,1525.0
1575321301.601791,1527.27
1575321301.6101499,1527.28
1575321301.6183949,1526.01
1575321301.6306229,1524.09
1575321301.6392581,1524.87
1575321301.647061,1529.84
1575321301.659148,1542.14
1575321301.6677241,1557.0
1575321301.6755369,1565.87
1575321301.683794,1569.29
1575321301.6961348,1563.76
1575321301.7050009,1555.27
1575321301.712523,1543.76
1575321301.7245739,1535.55
1575321301.7331,1532.41
1575321301.7410119,1531.33
1575321301.7493608,1530.99
1575321301.761698,1529.33
1575321301.77097,1527.23
1575321301.778145,1524.41
1575321301.790556,1522.7
1575321301.798749,1523.01
1575321301.8074958,1524.68
1575321301.815116,1525.4
1575321301.82721,1524.27
1575321301.8353658,1522.33
1575321301.84351,1523.37
1575321301.85649,1526.71
1575321301.8641658,1529.94
1575321301.872881,1527.68
1575321301.880567,1521.98
1575321301.892548,1512.15
1575321301.9009159,1501.6
1575321301.908988,1493.08
1575321301.921847,1483.59
1575321301.9296992,1478.86
1575321301.938404,1479.58
1575321301.9461372,1484.66
1575321301.9580748,1491.7
1575321301.9666188,1496.99
1575321301.97447,1501.62
1575321301.987387,1503.91
1575321301.995157,1504.23
1575321302.004735,1503.27
1575321302.011575,1499.83
1575321302.0240252,1494.36
1575321302.0320482,1490.35
1575321302.0406651,1486.59
1575321302.0525088,1480.44
1575321302.060529,1467.52
1575321302.0688372,1434.19
1575321302.0770528,1380.37
1575321302.0896719,1327.75
1575321302.097526,1260.01
1575321302.106224,1199.48
1575321302.1180449,1160.87
1575321302.126029,1127.02
1575321302.134449,1107.16
1575321302.142564,1098.37
1575321302.155413,1092.27
1575321302.1631832,1089.31
1575321302.172658,1088.89
1575321302.183809,1091.54
1575321302.191705,1097.27
1575321302.2000809,1102.61
1575321302.207992,1108.51
1575321302.2211862,1112.78
1575321302.228653,1115.36
1575321302.23774,1117.05
1575321302.24927,1120.55
1575321302.257151,1126.07
1575321302.2656,1132.0
1575321302.274326,1140.76
1575321302.285989,1149.61
1575321302.29416,1156.79
1575321302.302305,1169.13
1575321302.314705,1187.55
1575321302.323384,1205.05
1575321302.331164,1225.76
1575321302.3396878,1242.02
1575321302.351719,1251.92
1575321302.359661,1261.86
1575321302.3680298,1270.42
1575321302.380051,1276.77
1575321302.388982,1284.5
1575321302.396797,1291.5
1575321302.4059231,1296.11
1575321302.417055,1299.74
1575321302.4251149,1301.79
1575321302.4337149,1303.26
1575321302.445695,1304.47
1575321302.454654,1304.32
1575321302.462052,1303.34
1575321302.4713159,1302.67
1575321302.482379,1303.66
1575321302.490603,1306.21
1575321302.499263,1307.23
1575321302.511144,1305.6
1575321302.519466,1301.55
1575321302.527648,1298.04
1575321302.535807,1293.48
1575321302.5484219,1287.91
1575321302.556847,1283.53
1575321302.564693,1280.81
1575321302.573183,1282.61
1575321302.585004,1286.61
1575321302.593354,1293.62
1575321302.601932,1300.77
1575321302.6135092,1305.46
1575321302.62291,1309.27
1575321302.629994,1310.45
1575321302.639661,1309.88
1575321302.650513,1308.01
1575321302.658798,1306.55
1575321302.6671748,1307.06
1575321302.679111,1310.15
1575321302.688586,1314.29
1575321302.695439,1317.16
1575321302.704491,1320.75
1575321302.7161431,1335.47
1575321302.724413,1368.71
1575321302.732459,1409.18
1575321302.744718,1469.82
1575321302.7535691,1529.24
1575321302.761122,1569.96
1575321302.769294,1611.72
1575321302.782,1645.87
1575321302.790329,1669.74
1575321302.798305,1696.0
1575321302.8101602,1715.96
1575321302.8185,1726.01
1575321302.8265018,1731.08
1575321302.83517,1730.59
1575321302.8472111,1728.89
1575321302.855956,1727.3
1575321302.8636281,1726.94
1575321302.875585,1727.07
1575321302.884023,1726.52
1575321302.892077,1724.17
1575321302.900497,1719.46
1575321302.912734,1709.82
1575321302.92135,1702.27
1575321302.929169,1705.82
1575321302.94113,1718.64
1575321302.949607,1742.84
1575321302.9575732,1767.48
1575321302.966005,1783.83
1575321302.978122,1798.72
1575321302.987147,1807.74
1575321302.994605,1811.13
1575321303.007113,1811.18
1575321303.015489,1806.89
1575321303.0240378,1801.0
1575321303.031519,1792.54
1575321303.0437791,1783.92
1575321303.0519848,1778.5
1575321303.060051,1774.47
1575321303.0728698,1771.82
1575321303.080683,1769.18
1575321303.089422,1764.68
1575321303.097166,1759.61
1575321303.109122,1755.8
1575321303.1175659,1750.71
1575321303.125551,1744.83
1575321303.138519,1739.66
1575321303.1460428,1733.16
1575321303.1553202,1726.56
1575321303.162656,1719.6
1575321303.174651,1713.88
1575321303.1831412,1707.7
1575321303.1910431,1703.35
1575321303.204231,1701.17
1575321303.211678,1699.69
1575321303.22124,1700.03
1575321303.228189,1702.09
1575321303.240472,1706.06
1575321303.2486458,1709.27
1575321303.2574039,1710.73
1575321303.270685,1711.06
1575321303.277209,1710.42
1575321303.285495,1709.25
1575321303.293418,1706.62
1575321303.3063512,1702.14
1575321303.314281,1699.12
1575321303.3228328,1700.12
1575321303.3345659,1707.53
1575321303.34258,1715.67
1575321303.350951,1724.27
1575321303.358942,1729.17
1575321303.372171,1731.29
1575321303.3797069,1732.7
1575321303.3885288,1733.14
1575321303.400322,1732.66
1575321303.408225,1732.9
1575321303.416495,1735.75
1575321303.424504,1740.94
1575321303.437938,1745.45
1575321303.4450428,1748.65
1575321303.455007,1748.25
1575321303.46577,1746.54
1575321303.4746282,1742.85
1575321303.482235,1737.24
1575321303.49036,1732.29
1575321303.502445,1726.57
1575321303.510657,1721.34
1575321303.518879,1716.11
1575321303.531185,1706.56
1575321303.5402691,1695.24
1575321303.547743,1687.52
1575321303.556316,1682.2
1575321303.5681732,1680.73
1575321303.576118,1681.32
1575321303.585263,1684.39
1575321303.5967958,1689.32
1575321303.605348,1693.01
1575321303.6132638,1694.92
1575321303.6224499,1693.07
1575321303.6335459,1688.47
1575321303.641759,1684.62
1575321303.649812,1681.34
1575321303.662215,1679.82
1575321303.6713111,1678.39
1575321303.678723,1673.83
1575321303.687464,1666.1
1575321303.6991801,1658.22
1575321303.7080162,1647.32
1575321303.715617,1637.1
1575321303.727791,1630.28
1575321303.7359989,1623.45
1575321303.7441962,1618.23
1575321303.7523332,1614.79
1575321303.7649999,1611.82
1575321303.773515,1610.74
1575321303.7810829,1611.46
1575321303.79319,1612.97
1575321303.801528,1612.71
1575321303.80951,1610.79
1575321303.818169,1608.7
1575321303.83016,1609.35
1575321303.839039,1611.57
1575321303.8466718,1614.84
1575321303.85863,1616.22
1575321303.867211,1614.58
1575321303.8751822,1611.79
1575321303.883731,1608.85
1575321303.895732,1607.84
1575321303.904643,1607.26
1575321303.9122062,1605.13
1575321303.924176,1601.13
1575321303.9326751,1596.28
1575321303.941231,1587.93
1575321303.9489589,1578.23
1575321303.9612648,1571.08
1575321303.9695308,1565.94
1575321303.9775438,1566.33
1575321303.99016,1569.44
1575321303.9983208,1573.62
1575321304.0068421,1575.07
1575321304.014815,1573.26
1575321304.026551,1568.46
1575321304.0353541,1563.85
1575321304.043097,1562.16
1575321304.056074,1564.25
1575321304.0637372,1570.9
1575321304.072432,1578.28
1575321304.0799842,1587.88
1575321304.092095,1596.1
1575321304.100384,1601.45
1575321304.1085272,1603.93
1575321304.121548,1604.87
1575321304.1290638,1603.78
1575321304.138069,1602.69
1575321304.145428,1602.01
1575321304.157696,1601.45
1575321304.166162,1600.76
1575321304.1745028,1598.42
1575321304.186604,1594.24
1575321304.194529,1590.8
1575321304.2037241,1587.58
1575321304.211159,1585.2
1575321304.2237701,1582.83
1575321304.232051,1578.45
1575321304.240766,1573.3
1575321304.252046,1569.74
1575321304.260103,1567.14
1575321304.26855,1565.5
1575321304.276543,1563.22
1575321304.2895381,1558.01
1575321304.297179,1551.48
1575321304.305961,1547.08
1575321304.3175628,1543.57
1575321304.3256161,1542.34
1575321304.334059,1542.83
1575321304.341998,1543.47
1575321304.355047,1544.25
1575321304.362763,1545.69
1575321304.37166,1546.89
1575321304.383133,1547.22
1575321304.3912609,1546.74
1575321304.399494,1546.99
1575321304.408077,1548.97
1575321304.4211981,1552.54
1575321304.428202,1554.82
1575321304.437042,1555.12
1575321304.448962,1552.26
1575321304.457396,1548.86
1575321304.465224,1545.58
1575321304.4737148,1544.19
1575321304.485641,1544.21
1575321304.4937742,1544.44
1575321304.502042,1544.27
1575321304.5141199,1545.2
1575321304.5224152,1547.78
1575321304.5304801,1550.87
1575321304.54005,1553.2
1575321304.5510242,1555.62
1575321304.559189,1556.36
1575321304.567473,1553.68
1575321304.5797918,1549.03
1575321304.5888991,1542.65
1575321304.596726,1538.31
1575321304.605192,1537.29
1575321304.616947,1538.83
1575321304.625014,1541.56
1575321304.633009,1540.96
1575321304.645092,1531.76
1575321304.6541939,1508.14
1575321304.661712,1478.34
1575321304.670837,1434.33
1575321304.682475,1394.88
1575321304.6911628,1372.7
1575321304.698675,1357.66
1575321304.710819,1352.36
1575321304.719004,1351.06
1575321304.727246,1349.33
1575321304.735471,1344.98
1575321304.747894,1339.41
1575321304.7566788,1332.23
1575321304.764134,1327.05
1575321304.776138,1324.08
1575321304.784545,1323.08
1575321304.7926452,1328.32
1575321304.801023,1338.93
1575321304.813354,1347.07
1575321304.82205,1352.76
1575321304.829749,1353.24
1575321304.841693,1351.45
1575321304.850296,1349.71
1575321304.858121,1350.36
1575321304.8665018,1352.17
1575321304.8789299,1355.04
1575321304.887136,1361.56
1575321304.895209,1375.01
1575321304.907327,1407.65
1575321304.916026,1455.81
1575321304.924384,1497.89
1575321304.932283,1544.37
1575321304.9442902,1577.53
1575321304.952441,1593.93
1575321304.960719,1605.67
1575321304.973323,1612.48
1575321304.981575,1615.96
1575321304.99004,1619.62
1575321304.997679,1623.59
1575321305.0096881,1627.26
1575321305.01817,1632.6
1575321305.0260658,1637.49
1575321305.039082,1641.65
1575321305.0467231,1644.32
1575321305.0554812,1647.41
1575321305.063213,1649.83
1575321305.075188,1650.4
1575321305.083814,1648.97
1575321305.091604,1645.44
1575321305.105054,1641.86
1575321305.112344,1638.31
1575321305.1215281,1636.73
1575321305.12851,1635.77
1575321305.140904,1633.06
1575321305.148994,1629.02
1575321305.157866,1626.55
1575321305.169646,1626.32
1575321305.177807,1628.89
1575321305.1860108,1629.78
1575321305.19424,1620.48
1575321305.20677,1591.18
1575321305.215103,1551.26
1575321305.223372,1484.44
1575321305.235407,1410.0
1575321305.243246,1353.81
1575321305.251592,1294.88
1575321305.259512,1250.19
1575321305.2725341,1216.97
1575321305.280292,1196.26
1575321305.289108,1175.42
1575321305.300807,1159.78
1575321305.308745,1150.59
1575321305.317183,1142.77
1575321305.3250759,1138.08
1575321305.338269,1135.82
1575321305.345813,1134.8
1575321305.354801,1135.7
1575321305.3661199,1137.66
1575321305.37461,1141.32
1575321305.3824482,1146.7
1575321305.390799,1152.58
1575321305.403157,1160.03
1575321305.4111328,1165.96
1575321305.419517,1169.78
1575321305.431809,1173.85
1575321305.4409542,1178.57
1575321305.448395,1182.63
1575321305.456766,1187.84
1575321305.468609,1193.54
1575321305.47662,1198.48
1575321305.485187,1205.18
1575321305.497065,1211.42
1575321305.5061362,1216.19
1575321305.5137699,1218.82
1575321305.522489,1220.82
1575321305.5340621,1221.56
1575321305.5421371,1222.15
1575321305.550627,1227.77
1575321305.562631,1246.62
1575321305.571763,1271.81
1575321305.579217,1308.24
1575321305.588869,1340.13
1575321305.600075,1358.79
1575321305.608532,1375.12
1575321305.615954,1387.78
1575321305.6281972,1397.21
1575321305.637155,1408.72
1575321305.644623,1419.26
1575321305.652916,1427.06
1575321305.665719,1435.75
1575321305.6738482,1443.63
1575321305.6820202,1449.73
1575321305.694023,1456.33
1575321305.7022452,1461.27
1575321305.710156,1463.71
1575321305.7186298,1464.88
1575321305.7308228,1464.64
1575321305.7396,1462.6
1575321305.747251,1459.15
1575321305.7592509,1453.74
1575321305.767601,1449.16
1575321305.775638,1447.17
1575321305.784093,1447.36
1575321305.796364,1449.61
1575321305.805046,1451.37
1575321305.812802,1453.1
1575321305.8247511,1453.88
1575321305.8332548,1454.36
1575321305.8411899,1455.87
1575321305.849489,1458.61
1575321305.861821,1461.53
1575321305.8714838,1466.54
1575321305.8782458,1472.25
1575321305.890856,1475.97
1575321305.898883,1478.22
1575321305.907669,1477.59
1575321305.915312,1476.26
1575321305.927356,1475.78
1575321305.935552,1477.84
1575321305.9436831,1480.83
1575321305.9563808,1485.25
1575321305.964443,1491.43
1575321305.973506,1497.41
1575321305.980499,1500.26
1575321305.992712,1500.69
1575321306.001181,1498.93
1575321306.009085,1497.62
1575321306.022757,1495.99
1575321306.0297441,1494.5
1575321306.03915,1493.49
1575321306.0461829,1492.55
1575321306.05836,1494.23
1575321306.066899,1497.94
1575321306.074995,1503.54
1575321306.088074,1509.94
1575321306.0953119,1518.21
1575321306.1054,1536.8
1575321306.1115892,1563.06
1575321306.124337,1584.92
1575321306.132287,1609.07
1575321306.140827,1627.71
1575321306.152531,1639.5
1575321306.160776,1651.97
1575321306.169054,1661.01
1575321306.177057,1664.09
1575321306.190063,1661.58
1575321306.197974,1653.93
1575321306.206422,1647.06
1575321306.218156,1644.88
1575321306.226184,1646.15
1575321306.2346969,1649.34
1575321306.242666,1650.71
1575321306.2556689,1649.8
1575321306.263137,1646.29
1575321306.272439,1641.92
1575321306.283892,1634.8
1575321306.291876,1626.55
1575321306.300461,1621.17
1575321306.308138,1617.9
1575321306.321037,1618.54
1575321306.328782,1621.36
1575321306.3376389,1626.92
1575321306.349349,1633.51
1575321306.3578932,1638.19
1575321306.365798,1641.8
1575321306.374443,1642.48
1575321306.386102,1641.91
1575321306.3942652,1641.81
1575321306.402488,1643.62
1575321306.41483,1645.5
1575321306.42357,1646.89
1575321306.431406,1646.7
1575321306.4399638,1644.96
1575321306.451898,1642.32
1575321306.459768,1637.5
1575321306.4681642,1632.18
1575321306.480217,1629.07
1575321306.4891,1627.92
1575321306.496834,1629.06
1575321306.5056121,1629.21
1575321306.5174341,1625.31
1575321306.5253289,1617.57
1575321306.533896,1611.15
1575321306.545761,1606.28
1575321306.554999,1606.54
1575321306.5623739,1609.94
1575321306.571386,1618.15
1575321306.5828679,1628.62
1575321306.591434,1636.42
1575321306.599146,1642.73
1575321306.607408,1643.47
1575321306.619627,1640.38
1575321306.627619,1634.64
1575321306.6360059,1631.72
1575321306.648206,1633.38
1575321306.657061,1637.12
1575321306.664682,1635.61
1575321306.673263,1624.86
1575321306.685248,1611.43
1575321306.693233,1592.59
1575321306.70166,1573.71
1575321306.713708,1559.57
1575321306.722882,1544.45
1575321306.7302191,1534.79
1575321306.739048,1532.07
1575321306.750772,1534.01
1575321306.758833,1537.9
1575321306.767244,1539.29
1575321306.779202,1537.36
1575321306.7882009,1532.95
1575321306.795969,1528.9
1575321306.805276,1525.2
1575321306.8163,1524.68
1575321306.825284,1526.94
1575321306.832486,1533.15
1575321306.844857,1541.53
1575321306.852984,1546.94
1575321306.861305,1548.65
1575321306.8694751,1543.27
1575321306.881994,1535.84
1575321306.8907242,1530.28
1575321306.898356,1536.52
1575321306.910232,1555.1
1575321306.918696,1574.34
1575321306.926689,1597.34
1575321306.935313,1614.98
1575321306.94736,1624.53
1575321306.955942,1631.64
1575321306.9637911,1634.52
1575321306.9757051,1634.32
1575321306.984072,1632.37
1575321306.992203,1629.79
1575321307.000824,1628.23
1575321307.012905,1627.95
1575321307.022635,1629.12
1575321307.0293381,1629.7
1575321307.041316,1628.32
1575321307.049751,1623.88
1575321307.057742,1619.52
1575321307.066045,1616.66
1575321307.0783591,1617.87
1575321307.087496,1619.9
1575321307.094771,1620.55
1575321307.1072068,1617.49
1575321307.115354,1613.56
1575321307.123873,1609.2
1575321307.131657,1607.2
1575321307.143732,1607.02
1575321307.152073,1606.77
1575321307.1602938,1605.83
1575321307.1729898,1604.78
1575321307.180923,1604.12
1575321307.1895838,1603.27
1575321307.197267,1601.78
1575321307.209246,1599.43
1575321307.2176142,1595.25
1575321307.2256398,1591.74
1575321307.238702,1590.44
1575321307.246221,1588.27
1575321307.2552161,1580.18
1575321307.262822,1568.09
1575321307.274844,1549.43
1575321307.2833622,1532.19
1575321307.2911701,1522.12
1575321307.304233,1516.4
1575321307.3118489,1518.59
1575321307.320072,1523.8
1575321307.32807,1530.7
1575321307.340845,1535.44
1575321307.348758,1537.33
1575321307.357546,1538.33
1575321307.369062,1540.06
1575321307.377385,1543.2
1575321307.3855948,1546.33
1575321307.393582,1548.69
1575321307.406446,1547.47
1575321307.414422,1544.91
1575321307.42304,1541.01
1575321307.434687,1537.58
1575321307.442753,1536.89
1575321307.451079,1542.03
1575321307.459127,1555.63
1575321307.472157,1569.93
1575321307.479881,1586.06
1575321307.488624,1597.77
1575321307.5005682,1604.99
1575321307.508388,1612.4
1575321307.516799,1619.95
1575321307.524767,1626.3
1575321307.5376651,1633.25
1575321307.545322,1636.31
1575321307.554494,1635.08
1575321307.565962,1629.68
1575321307.574611,1622.11
1575321307.582276,1616.47
1575321307.590838,1611.52
1575321307.603725,1609.97
1575321307.6113122,1611.45
1575321307.6190631,1613.26
1575321307.6312351,1614.28
1575321307.640403,1612.57
1575321307.6476748,1609.82
1575321307.656321,1605.86
1575321307.668122,1601.6
1575321307.676193,1598.24
1575321307.684756,1594.63
1575321307.69677,1591.95
1575321307.7059991,1590.58
1575321307.713274,1590.28
1575321307.7221692,1591.29
1575321307.733928,1592.1
1575321307.741834,1592.09
1575321307.750358,1590.46
1575321307.762304,1588.3
1575321307.7718,1584.3
1575321307.778798,1579.93
1575321307.788152,1579.39
1575321307.799169,1587.78
1575321307.807433,1608.16
1575321307.8159308,1630.79
1575321307.827754,1661.13
1575321307.836143,1687.45
1575321307.844204,1705.81
1575321307.85253,1714.9
1575321307.8648388,1722.63
1575321307.873596,1730.23
1575321307.8813791,1737.07
1575321307.893365,1744.62
1575321307.9018502,1748.24
1575321307.909763,1746.88
1575321307.9180899,1741.01
1575321307.930431,1733.32
1575321307.9393458,1726.86
1575321307.946898,1718.81
1575321307.958842,1710.22
1575321307.9673479,1702.33
1575321307.975232,1691.61
1575321307.9838688,1681.97
1575321307.995939,1675.8
1575321308.00564,1669.52
1575321308.01234,1664.4
1575321308.0245361,1662.31
1575321308.032696,1663.15
1575321308.041045,1666.61
1575321308.049098,1669.24
1575321308.061419,1669.35
1575321308.069567,1665.89
1575321308.077831,1660.94
1575321308.090305,1657.23
1575321308.09868,1653.55
1575321308.108293,1649.95
1575321308.114722,1646.45
1575321308.1268601,1640.76
1575321308.135167,1634.35
1575321308.143223,1630.08
1575321308.15619,1627.27
1575321308.163732,1627.02
1575321308.172641,1627.51
1575321308.180306,1628.45
1575321308.192298,1628.98
1575321308.200923,1628.25
1575321308.209499,1626.57
1575321308.221626,1625.77
1575321308.2294679,1626.14
1575321308.2382221,1627.04
1575321308.245844,1626.49
1575321308.257854,1624.33
1575321308.266199,1620.1
1575321308.27437,1616.42
1575321308.2866619,1615.74
1575321308.2949052,1618.03
1575321308.3031502,1622.0
1575321308.311313,1624.67
1575321308.3238559,1624.55
1575321308.332147,1621.45
1575321308.340637,1616.17
1575321308.352268,1612.12
1575321308.3602529,1609.74
1575321308.3686972,1609.24
1575321308.3766458,1608.23
1575321308.389591,1604.9
1575321308.3973918,1600.66
1575321308.406315,1597.4
1575321308.4176629,1594.55
1575321308.425857,1592.54
1575321308.434169,1589.79
1575321308.4422321,1584.95
1575321308.455349,1580.86
1575321308.462833,1578.99
1575321308.471908,1577.85
1575321308.483296,1577.48
1575321308.4914649,1577.52
1575321308.499769,1578.49
1575321308.507704,1580.08
1575321308.52026,1581.59
1575321308.528192,1587.45
1575321308.536534,1603.17
1575321308.548875,1628.72
1575321308.557736,1651.89
1575321308.565294,1677.9
1575321308.573761,1697.93
1575321308.5858428,1709.73
1575321308.593865,1718.84
1575321308.602684,1721.3
1575321308.6143098,1719.51
1575321308.623196,1714.79
1575321308.6307452,1708.66
1575321308.6397738,1703.26
1575321308.6512709,1697.1
1575321308.6595001,1692.63
1575321308.667712,1690.11
1575321308.6798038,1687.96
1575321308.688853,1687.13
1575321308.696415,1687.88
1575321308.7058392,1692.49
1575321308.717011,1704.61
1575321308.7252429,1720.59
1575321308.733293,1746.47
1575321308.7454212,1773.38
1575321308.75481,1791.43
1575321308.761927,1806.87
1575321308.770011,1815.17
1575321308.78237,1817.98
1575321308.791362,1817.06
1575321308.7986162,1813.14
1575321308.8110342,1806.62
1575321308.819169,1799.4
1575321308.827308,1788.71
1575321308.835663,1778.07
1575321308.84785,1771.31
1575321308.856473,1765.91
1575321308.864379,1762.78
1575321308.8763719,1760.61
1575321308.884734,1757.59
1575321308.8927271,1754.12
1575321308.901126,1751.81
1575321308.913464,1748.98
1575321308.922486,1745.31
1575321308.929812,1741.21
1575321308.941853,1735.49
1575321308.9505742,1729.87
1575321308.958266,1724.92
1575321308.9668212,1717.42
1575321308.97901,1708.93
1575321308.987674,1703.33
1575321308.995359,1700.29
1575321309.007822,1701.94
1575321309.016246,1705.29
1575321309.024867,1707.41
1575321309.032224,1709.63
1575321309.044477,1711.01
1575321309.0525692,1710.69
1575321309.0607638,1707.63
1575321309.073482,1704.08
1575321309.081481,1704.56
1575321309.0899682,1711.88
1575321309.097926,1724.37
1575321309.109916,1733.99
1575321309.1181598,1741.23
1575321309.126218,1742.71
1575321309.1393979,1741.92
1575321309.1467872,1741.26
1575321309.155536,1743.03
1575321309.163229,1746.33
1575321309.175334,1751.23
1575321309.184055,1754.63
1575321309.1917708,1755.97
1575321309.2051141,1756.53
1575321309.212414,1756.0
1575321309.221579,1753.9
1575321309.229013,1747.88
1575321309.240959,1740.19
1575321309.249238,1733.99
1575321309.257736,1730.69
1575321309.269693,1727.86
1575321309.277822,1724.31
1575321309.286138,1720.62
1575321309.294376,1714.99
1575321309.3071098,1709.33
1575321309.3152199,1707.14
1575321309.323764,1710.08
1575321309.335498,1719.4
1575321309.343389,1729.17
1575321309.351706,1740.31
1575321309.359794,1747.45
1575321309.372959,1750.31
1575321309.380362,1752.11
1575321309.389175,1753.19
1575321309.400921,1753.99
1575321309.408884,1754.11
1575321309.417452,1752.27
1575321309.4252381,1749.55
1575321309.438317,1744.77
1575321309.445974,1738.39
1575321309.455086,1732.86
1575321309.466382,1727.09
1575321309.474976,1724.28
1575321309.48273,1724.22
1575321309.491102,1725.71
1575321309.5033119,1728.99
1575321309.5113118,1731.66
1575321309.519704,1733.47
1575321309.532149,1736.07
1575321309.5409348,1738.0
1575321309.5485718,1736.48
1575321309.5570078,1729.64
1575321309.5689092,1719.36
1575321309.576868,1710.38
1575321309.585311,1699.64
1575321309.597388,1690.09
1575321309.6061308,1682.32
1575321309.614123,1671.19
1575321309.622644,1659.45
1575321309.634378,1651.82
1575321309.643302,1645.95
1575321309.65071,1642.73
1575321309.662865,1640.77
1575321309.6719842,1638.55
1575321309.6793978,1637.02
1575321309.688299,1638.23
1575321309.699923,1645.44
1575321309.707954,1658.31
1575321309.7161999,1671.89
1575321309.728502,1680.25
1575321309.736872,1685.88
1575321309.744936,1687.22
1575321309.753097,1687.58
1575321309.765752,1688.62
1575321309.774784,1689.62
1575321309.781885,1688.75
1575321309.794063,1684.03
1575321309.802454,1676.06
1575321309.8103318,1668.8
1575321309.818687,1661.15
1575321309.831156,1657.67
1575321309.839872,1657.35
1575321309.847342,1656.92
1575321309.859373,1654.11
1575321309.8678012,1650.72
1575321309.875861,1646.93
1575321309.884269,1644.83
1575321309.896512,1644.12
1575321309.905246,1642.93
1575321309.912928,1639.5
1575321309.924928,1635.1
1575321309.93342,1629.44
1575321309.94139,1624.61
1575321309.949725,1621.56
1575321309.962035,1620.33
1575321309.970746,1618.02
1575321309.9783978,1614.09
1575321309.9910321,1609.73
1575321309.999128,1602.87
1575321310.007648,1596.45
1575321310.0155158,1592.88
1575321310.0273888,1590.34
1575321310.0357,1588.5
1575321310.043932,1586.67
1575321310.0568619,1583.31
1575321310.064548,1579.22
1575321310.0731142,1575.88
1575321310.081195,1570.87
1575321310.093239,1564.72
1575321310.101229,1559.82
1575321310.109282,1555.78
1575321310.122454,1554.37
1575321310.130027,1554.27
1575321310.1385238,1554.13
1575321310.146295,1552.31
1575321310.158438,1549.73
1575321310.16673,1546.13
1575321310.175025,1544.13
1575321310.188352,1544.53
1575321310.1954691,1546.59
1575321310.2040179,1549.78
1575321310.211898,1551.31
1575321310.224375,1551.02
1575321310.232477,1548.82
1575321310.241197,1544.69
1575321310.252834,1540.56
1575321310.260874,1535.53
1575321310.269216,1530.97
1575321310.277281,1527.28
1575321310.290359,1522.52
1575321310.2980359,1518.95
1575321310.3066099,1517.56
1575321310.318478,1517.14
1575321310.326421,1517.47
1575321310.334781,1517.61
1575321310.342788,1518.3
1575321310.3557608,1520.82
1575321310.363489,1525.24
1575321310.372683,1530.33
1575321310.384106,1523.45
1575321310.391925,1501.66
1575321310.400405,1449.55
1575321310.4083211,1374.52
1575321310.4217322,1285.98
1575321310.428957,1212.56
1575321310.437768,1126.65
1575321310.4494562,1053.49
1575321310.458333,1005.88
1575321310.4657779,960.52
1575321310.4742122,934.71
1575321310.482487,916.23
1575321310.491082,902.99
1575321310.4988701,892.22
1575321310.5072849,887.44
1575321310.5152059,885.34
1575321310.523766,884.79
1575321310.531517,885.94
1575321310.5403252,889.18
1575321310.547893,895.76
1575321310.5568068,901.79
1575321310.564237,906.7
1575321310.5728698,908.93
1575321310.580585,907.98
1575321310.589119,904.39
1575321310.597046,899.73
1575321310.6056519,894.26
1575321310.6138518,891.32
1575321310.622354,890.55
1575321310.629785,892.17
1575321310.63904,895.98
1575321310.650016,901.32
1575321310.658138,908.95
1575321310.666431,915.42
1575321310.6745222,922.43
1575321310.682823,929.7
1575321310.691201,937.28
1575321310.699372,945.74
1575321310.707909,958.33
1575321310.7160902,969.32
1575321310.724805,980.34
1575321310.7321541,991.62
1575321310.7406158,1002.99
1575321310.7488189,1015.99
1575321310.760604,1028.75
1575321310.768922,1042.31
1575321310.777077,1067.25
1575321310.7899678,1099.67
1575321310.797757,1127.04
1575321310.8066602,1157.95
1575321310.8141272,1181.95
1575321310.8262742,1196.55
1575321310.8346062,1211.67
1575321310.8426912,1225.68
1575321310.855699,1236.54
1575321310.8631392,1249.38
1575321310.872179,1260.3
1575321310.879613,1267.19
1575321310.8915641,1274.35
1575321310.900118,1281.93
1575321310.908263,1289.09
1575321310.920533,1298.45
1575321310.9286258,1306.43
1575321310.937387,1310.68
1575321310.945052,1312.81
1575321310.957664,1312.34
1575321310.9656131,1311.09
1575321310.974508,1311.21
1575321310.986027,1313.85
1575321310.9940312,1317.78
1575321311.00249,1320.8
1575321311.010412,1323.09
1575321311.023534,1324.13
1575321311.031029,1324.48
1575321311.0398211,1324.89
1575321311.051523,1325.73
1575321311.059647,1326.58
1575321311.0679228,1328.59
1575321311.075953,1332.56
1575321311.0889988,1336.39
1575321311.0967062,1341.33
1575321311.105731,1345.87
1575321311.1172092,1348.49
1575321311.125078,1352.04
1575321311.13362,1356.48
1575321311.14178,1357.43
1575321311.155068,1350.25
1575321311.162048,1333.78
1575321311.1721091,1317.65
1575321311.1829572,1299.66
1575321311.1913118,1287.86
1575321311.199143,1282.32
1575321311.207569,1280.97
1575321311.219585,1281.58
1575321311.2275672,1283.89
1575321311.235903,1286.38
1575321311.248085,1288.89
1575321311.2564092,1290.58
1575321311.264719,1292.02
1575321311.2734451,1294.27
1575321311.2851908,1297.21
1575321311.29312,1299.98
1575321311.301379,1304.11
1575321311.313666,1307.69
1575321311.322496,1309.98
1575321311.330155,1313.31
1575321311.339089,1317.65
1575321311.350873,1321.52
1575321311.3587341,1326.61
1575321311.3670342,1332.92
1575321311.379082,1339.22
1575321311.3883038,1346.6
1575321311.39579,1350.38
1575321311.4044118,1350.43
1575321311.4161248,1349.01
1575321311.424673,1352.63
1575321311.4326022,1367.02
1575321311.4447649,1384.96
1575321311.452897,1408.64
1575321311.46114,1427.38
1575321311.469561,1437.98
1575321311.48176,1447.4
1575321311.4903,1454.77
1575321311.4982772,1460.77
1575321311.510197,1468.83
1575321311.5187259,1477.29
1575321311.526558,1483.72
1575321311.535051,1490.44
1575321311.547312,1494.7
1575321311.556483,1496.03
1575321311.563594,1495.03
1575321311.5756822,1492.27
1575321311.584255,1489.3
1575321311.592084,1485.46
1575321311.600655,1483.98
1575321311.61278,1486.02
1575321311.6223109,1491.16
1575321311.6292071,1495.92
1575321311.641275,1497.03
1575321311.649492,1493.77
1575321311.657961,1486.56
1575321311.665847,1478.34
1575321311.678079,1473.35
1575321311.686378,1471.21
1575321311.694658,1473.21
1575321311.70737,1476.59
1575321311.715332,1483.32
1575321311.724208,1494.39
1575321311.7318022,1505.69
1575321311.743673,1520.09
1575321311.752094,1531.55
1575321311.760056,1537.77
1575321311.772923,1543.16
1575321311.780649,1547.39
1575321311.7897742,1550.82
1575321311.797138,1555.67
1575321311.8091142,1559.8
1575321311.817769,1561.33
1575321311.8259242,1561.33
1575321311.838687,1561.2
1575321311.846194,1561.95
1575321311.855125,1563.57
1575321311.862677,1564.1
1575321311.8746529,1562.8
1575321311.88297,1558.87
1575321311.8911731,1554.73
1575321311.899422,1552.93
1575321311.911736,1553.79
1575321311.919925,1557.15
1575321311.9280472,1561.37
1575321311.940803,1563.64
1575321311.948957,1562.94
1575321311.95734,1560.14
1575321311.964971,1560.97
1575321311.977098,1570.48
1575321311.9856808,1588.52
1575321311.993535,1605.43
1575321312.006252,1625.69
1575321312.0141928,1642.25
1575321312.023005,1651.99
1575321312.030623,1658.96
1575321312.042633,1660.79
1575321312.0511239,1659.77
1575321312.059071,1656.87
1575321312.0719528,1652.78
1575321312.0797608,1649.16
1575321312.089045,1645.41
1575321312.0960588,1643.91
1575321312.10813,1644.53
1575321312.1169121,1646.15
1575321312.125706,1646.75
1575321312.137103,1645.02
1575321312.14507,1641.68
1575321312.153353,1636.13
1575321312.161449,1630.5
1575321312.174412,1626.56
1575321312.182498,1622.93
1575321312.191173,1622.31
1575321312.202555,1624.86
1575321312.2105238,1630.85
1575321312.219243,1637.2
1575321312.227026,1640.02
1575321312.2399948,1638.76
1575321312.247769,1631.91
1575321312.256446,1624.42
1575321312.268033,1615.81
1575321312.276126,1607.81
1575321312.2844422,1602.08
1575321312.292483,1599.18
1575321312.305805,1604.25
1575321312.3132532,1612.92
1575321312.3219478,1625.35
1575321312.3336608,1635.17
1575321312.3416839,1640.43
1575321312.350121,1645.18
1575321312.358015,1648.57
1575321312.370635,1650.44
1575321312.378693,1650.84
1575321312.3870971,1649.86
1575321312.399271,1647.79
1575321312.4076512,1644.51
1575321312.4156349,1637.14
1575321312.424427,1627.79
1575321312.436039,1620.8
1575321312.444026,1613.68
1575321312.452706,1608.77
1575321312.464576,1606.54
1575321312.473431,1603.26
1575321312.4811578,1592.6
1575321312.489962,1575.14
1575321312.501667,1543.67
1575321312.509562,1509.21
1575321312.517893,1484.48
1575321312.5302,1459.47
1575321312.5391092,1440.56
1575321312.546664,1428.92
1575321312.555707,1418.02
1575321312.5672472,1409.4
1575321312.57511,1403.09
1575321312.58363,1395.76
1575321312.595785,1388.5
1575321312.604749,1381.51
1575321312.612054,1376.63
1575321312.621807,1372.97
1575321312.6325078,1372.59
1575321312.641134,1373.54
1575321312.6491451,1375.71
1575321312.661098,1378.5
1575321312.6694121,1381.19
1575321312.677579,1385.6
1575321312.686052,1390.15
1575321312.6985002,1393.61
1575321312.706965,1397.61
1575321312.714944,1400.82
1575321312.7265909,1402.14
1575321312.734993,1401.74
1575321312.743084,1401.44
1575321312.7515361,1402.43
1575321312.763715,1404.78
1575321312.772618,1407.17
1575321312.7802072,1408.14
1575321312.7921531,1407.98
1575321312.800694,1407.84
1575321312.808574,1408.68
1575321312.817069,1412.02
1575321312.829321,1416.41
1575321312.8381271,1419.38
1575321312.845712,1419.88
1575321312.857988,1419.05
1575321312.866143,1417.42
1575321312.874548,1416.3
1575321312.882377,1416.6
1575321312.894676,1417.9
1575321312.9030132,1419.81
1575321312.911009,1423.29
1575321312.9239838,1426.16
1575321312.931923,1428.1
1575321312.940439,1430.72
1575321312.948242,1434.85
1575321312.960191,1439.88
1575321312.96869,1448.33
1575321312.9765189,1457.53
1575321312.9896991,1464.15
1575321312.9972868,1470.85
1575321313.0059142,1470.2
1575321313.013685,1458.52
1575321313.025651,1425.05
1575321313.034284,1374.05
1575321313.042093,1329.35
1575321313.055559,1280.5
1575321313.0627441,1245.86
1575321313.071682,1223.51
1575321313.079215,1211.07
1575321313.091264,1199.62
1575321313.099533,1191.15
1575321313.1080132,1186.17
1575321313.1200461,1180.53
1575321313.12835,1174.42
1575321313.136631,1170.28
1575321313.144528,1167.67
1575321313.157652,1169.17
1575321313.1651142,1173.37
1575321313.174305,1181.08
1575321313.1857102,1188.52
1575321313.1935802,1192.91
1575321313.2023199,1197.11
1575321313.210057,1201.68
1575321313.223022,1206.89
1575321313.2308009,1214.99
1575321313.239927,1222.98
1575321313.251198,1227.96
1575321313.259191,1232.53
1575321313.268045,1241.11
1575321313.27556,1257.69
1575321313.288528,1294.95
1575321313.2963042,1345.78
1575321313.305068,1397.79
1575321313.316639,1432.62
1575321313.325221,1463.09
1575321313.3330328,1481.69
1575321313.341441,1491.58
1575321313.3535402,1499.98
1575321313.361761,1507.09
1575321313.369947,1513.6
1575321313.3820622,1523.45
1575321313.390888,1534.45
1575321313.3989918,1543.09
1575321313.407734,1552.33
1575321313.419248,1559.78
1575321313.4271822,1564.79
1575321313.435617,1570.01
1575321313.447707,1575.17
1575321313.456488,1580.07
1575321313.4643042,1586.99
1575321313.473036,1593.86
1575321313.484517,1597.16
1575321313.492623,1597.04
1575321313.501311,1594.72
1575321313.513237,1594.07
1575321313.522208,1596.49
1575321313.5298402,1602.65
1575321313.539281,1610.42
1575321313.550185,1616.04
1575321313.5581791,1620.94
1575321313.566703,1623.59
1575321313.57863,1623.62
1575321313.58756,1622.46
1575321313.59536,1621.85
1575321313.604529,1621.84
1575321313.61584,1621.18
1575321313.624504,1619.36
1575321313.6322439,1617.49
1575321313.644255,1615.09
1575321313.6526039,1613.25
1575321313.660658,1612.2
1575321313.668968,1612.23
1575321313.681289,1614.17
1575321313.690192,1616.35
1575321313.697803,1617.82
1575321313.7096891,1615.07
1575321313.718068,1610.62
1575321313.72612,1605.19
1575321313.7346492,1601.99
1575321313.746837,1600.22
1575321313.7556229,1597.87
1575321313.7632651,1595.25
1575321313.775198,1592.44
1575321313.783732,1590.54
1575321313.7916281,1588.58
1575321313.800168,1586.15
1575321313.8124092,1582.4
1575321313.821107,1574.96
1575321313.828717,1566.62
1575321313.841293,1561.61
1575321313.849141,1558.7
1575321313.8577542,1558.59
1575321313.865798,1559.85
1575321313.877683,1562.14
1575321313.8860679,1564.29
1575321313.894112,1565.47
1575321313.907156,1564.87
1575321313.914825,1561.76
1575321313.923562,1559.02
1575321313.9313731,1557.48
1575321313.943465,1559.88
1575321313.951583,1563.93
1575321313.9598742,1567.46
1575321313.9725802,1566.54
1575321313.9803252,1562.62
1575321313.989056,1555.03
1575321313.9967449,1548.14
1575321314.0087261,1544.1
1575321314.017174,1539.24
1575321314.0251908,1523.25
1575321314.037993,1490.31
1575321314.045818,1451.71
1575321314.0550022,1396.3
1575321314.062291,1346.71
1575321314.074432,1317.62
1575321314.082613,1294.19
1575321314.09111,1281.19
1575321314.10308,1275.06
1575321314.1111739,1270.25
1575321314.1195,1267.08
1575321314.1276102,1264.63
1575321314.14028,1262.51
1575321314.148128,1262.08
1575321314.156783,1262.69
1575321314.168621,1263.81
1575321314.176668,1264.13
1575321314.1851678,1263.3
1575321314.193109,1261.62
1575321314.206065,1258.76
1575321314.2137978,1255.27
1575321314.222599,1250.95
1575321314.234436,1249.58
1575321314.242204,1253.64
1575321314.250784,1260.56
1575321314.258605,1271.26
1575321314.272114,1281.49
1575321314.279267,1287.99
1575321314.288726,1293.1
1575321314.299968,1295.41
1575321314.3083038,1296.37
1575321314.315991,1298.54
1575321314.324518,1301.91
1575321314.336674,1304.2
1575321314.3446348,1305.84
1575321314.353042,1308.88
1575321314.365419,1313.66
1575321314.374004,1321.99
1575321314.381737,1330.35
1575321314.390371,1334.62
1575321314.402293,1336.33
1575321314.41045,1336.45
1575321314.418506,1336.97
1575321314.430754,1339.47
1575321314.439751,1348.17
1575321314.447197,1361.09
1575321314.4559739,1381.6
1575321314.4679291,1402.18
1575321314.475801,1418.99
1575321314.484334,1429.93
1575321314.4962602,1441.98
1575321314.5060868,1453.55
1575321314.5125902,1462.02
1575321314.521791,1471.39
1575321314.533246,1479.46
1575321314.541686,1484.6
1575321314.549526,1490.22
1575321314.561874,1494.97
1575321314.570004,1497.35
1575321314.578304,1497.99
1575321314.586436,1497.74
1575321314.598778,1498.1
1575321314.606864,1497.14
1575321314.615351,1491.21
1575321314.62721,1482.25
1575321314.636055,1469.14
1575321314.6436238,1459.86
1575321314.6520488,1457.79
1575321314.664247,1460.3
1575321314.67232,1464.68
1575321314.680768,1467.86
1575321314.692767,1470.33
1575321314.701271,1472.99
1575321314.709285,1477.17
1575321314.7178109,1480.77
1575321314.729861,1484.71
1575321314.738869,1488.4
1575321314.746193,1491.99
1575321314.75828,1498.6
1575321314.766743,1506.47
1575321314.774741,1510.86
1575321314.7831218,1512.6
1575321314.7953222,1511.04
1575321314.8040462,1508.91
1575321314.811768,1509.87
1575321314.824405,1519.69
1575321314.832421,1534.88
1575321314.8414211,1559.42
1575321314.848808,1583.22
1575321314.8607712,1598.67
1575321314.86932,1613.03
1575321314.8771951,1622.65
1575321314.889906,1627.9
1575321314.897942,1632.52
1575321314.9065301,1635.4
1575321314.914269,1636.94
1575321314.9262762,1637.03
1575321314.9346619,1635.27
1575321314.9426172,1633.21
1575321314.9557388,1632.12
1575321314.963464,1631.74
1575321314.972325,1632.0
1575321314.97979,1631.55
1575321314.991782,1628.45
1575321315.000235,1623.45
1575321315.0082839,1619.49
1575321315.022004,1616.0
1575321315.0287292,1614.29
1575321315.0370739,1612.9
1575321315.04525,1610.36
1575321315.057782,1607.13
1575321315.065919,1604.56
1575321315.074355,1603.09
1575321315.086178,1604.07
1575321315.094174,1605.74
1575321315.1026702,1608.0
1575321315.1107311,1608.81
1575321315.1234791,1608.09
1575321315.1314392,1605.57
1575321315.14128,1601.33
1575321315.151654,1597.53
1575321315.159734,1593.12
1575321315.1681411,1592.77
1575321315.176358,1602.59
1575321315.18919,1618.68
1575321315.196864,1642.92
1575321315.20579,1663.42
1575321315.2175732,1673.71
1575321315.2254,1678.99
1575321315.2337239,1679.96
1575321315.241656,1680.54
1575321315.254047,1682.2
1575321315.2623098,1683.76
1575321315.271376,1683.34
1575321315.282721,1680.19
1575321315.291439,1674.65
1575321315.299267,1669.53
1575321315.308149,1664.72
1575321315.319617,1663.0
1575321315.327692,1663.53
1575321315.336098,1665.75
1575321315.3483279,1667.79
1575321315.357152,1668.43
1575321315.364724,1668.24
1575321315.373867,1667.52
1575321315.38525,1667.6
1575321315.39324,1667.7
1575321315.401553,1667.06
1575321315.413833,1665.81
1575321315.4227798,1664.91
1575321315.430439,1663.96
1575321315.4389372,1662.41
1575321315.450954,1659.84
1575321315.45906,1653.75
1575321315.467173,1646.34
1575321315.479216,1641.78
1575321315.488668,1638.51
1575321315.495816,1636.85
1575321315.504056,1636.79
1575321315.5162828,1638.09
1575321315.525601,1639.85
1575321315.532518,1640.4
1575321315.544956,1639.11
1575321315.553067,1634.78
1575321315.56129,1629.33
1575321315.569525,1621.95
1575321315.581973,1615.35
1575321315.5905669,1611.54
1575321315.598021,1607.86
1575321315.610322,1604.14
1575321315.618736,1601.13
1575321315.6266692,1597.69
1575321315.635136,1595.77
1575321315.647208,1594.94
1575321315.656248,1594.56
1575321315.663571,1595.02
1575321315.676009,1596.75
1575321315.684337,1598.7
1575321315.692341,1601.5
1575321315.700825,1604.66
1575321315.712928,1608.15
1575321315.7217999,1615.73
1575321315.729295,1627.46
1575321315.741332,1638.44
1575321315.749821,1650.35
1575321315.7581282,1657.28
1575321315.76617,1659.56
1575321315.7784052,1660.56
1575321315.786528,1661.94
1575321315.794816,1662.97
1575321315.807474,1663.24
1575321315.815698,1662.68
1575321315.824974,1662.76
1575321315.831792,1663.64
1575321315.843866,1663.8
1575321315.852331,1662.79
1575321315.860252,1660.91
1575321315.87309,1659.97
1575321315.880805,1659.61
1575321315.889458,1658.14
1575321315.8973289,1653.39
1575321315.9093068,1647.16
1575321315.917897,1645.01
1575321315.925678,1650.26
1575321315.934228,1663.57
1575321315.94634,1676.19
1575321315.955657,1689.69
1575321315.962888,1697.88
1575321315.9748852,1700.86
1575321315.9831529,1701.81
1575321315.9915662,1701.62
1575321315.999549,1701.12
1575321316.011891,1699.74
1575321316.0200572,1698.21
1575321316.0281558,1696.92
1575321316.040892,1694.21
1575321316.048789,1688.71
1575321316.057599,1681.77
1575321316.065409,1670.69
1575321316.0773451,1659.72
1575321316.085792,1653.3
1575321316.0936441,1648.79
1575321316.106737,1645.78
1575321316.114439,1640.73
1575321316.12315,1634.35
1575321316.130796,1624.48
1575321316.142817,1615.37
1575321316.151084,1610.14
1575321316.159221,1606.37
1575321316.172844,1604.75
1575321316.17968,1604.49
1575321316.1887062,1605.69
1575321316.1961348,1608.78
1575321316.2083042,1612.56
1575321316.2167838,1617.19
1575321316.2248142,1619.99
1575321316.23711,1620.56
1575321316.245383,1619.89
1575321316.2536352,1619.35
1575321316.261908,1620.17
1575321316.274505,1623.29
1575321316.282388,1627.44
1575321316.290986,1629.84
1575321316.302871,1630.0
1575321316.310806,1626.82
1575321316.319242,1622.91
1575321316.327119,1618.71
1575321316.3400772,1616.26
1575321316.3479722,1614.85
1575321316.356459,1613.66
1575321316.368165,1611.82
1575321316.376257,1609.56
1575321316.38467,1607.53
1575321316.3926651,1605.72
1575321316.405795,1604.91
1575321316.4134321,1604.79
1575321316.422187,1604.84
1575321316.4339461,1604.3
1575321316.441875,1603.72
1575321316.450291,1604.17
1575321316.458207,1609.67
1575321316.471057,1619.7
1575321316.4788868,1637.38
1575321316.487975,1656.12
1575321316.499326,1668.75
1575321316.5081139,1680.15
1575321316.51582,1687.29
1575321316.5244002,1691.18
1575321316.5362298,1694.6
1575321316.544184,1696.19
1575321316.552725,1696.61
1575321316.564846,1697.25
1575321316.573667,1698.15
1575321316.581354,1698.72
1575321316.589962,1698.3
1575321316.6016068,1697.0
1575321316.609895,1694.6
1575321316.618133,1691.21
1575321316.630282,1684.83
1575321316.639487,1677.27
1575321316.646915,1671.68
1575321316.656322,1666.12
1575321316.667192,1662.73
1575321316.675405,1661.24
1575321316.683608,1659.19
1575321316.695722,1652.87
1575321316.7049432,1641.66
1575321316.712329,1619.97
1575321316.720833,1595.62
1575321316.7329018,1579.94
1575321316.7415192,1568.43
1575321316.749272,1563.46
1575321316.761463,1560.15
1575321316.7696462,1552.81
1575321316.777738,1542.93
1575321316.786141,1535.53
1575321316.7984462,1529.42
1575321316.807445,1527.46
1575321316.814891,1527.34
1575321316.826838,1527.43
1575321316.8351822,1528.09
1575321316.8431869,1529.91
1575321316.851564,1532.62
1575321316.8639119,1538.77
1575321316.873406,1548.75
1575321316.880248,1557.99
1575321316.892416,1567.11
1575321316.900892,1573.37
1575321316.908828,1578.57
1575321316.917286,1586.6
1575321316.929454,1594.67
1575321316.93852,1599.32
1575321316.9458401,1601.32
1575321316.9580858,1598.94
1575321316.966246,1595.25
1575321316.974748,1590.09
1575321316.9826062,1584.99
1575321316.9949172,1581.61
1575321317.003103,1578.52
1575321317.011167,1576.95
1575321317.02406,1576.0
1575321317.031935,1573.53
1575321317.040614,1568.59
1575321317.048405,1561.52
1575321317.060331,1556.34
1575321317.068728,1553.09
1575321317.076829,1553.65
1575321317.0900962,1556.08
1575321317.097405,1560.22
1575321317.106121,1564.14
1575321317.11374,1565.99
1575321317.1258318,1566.19
1575321317.1344588,1565.72
1575321317.142241,1563.68
1575321317.155997,1553.74
1575321317.162714,1528.73
1575321317.1724072,1494.72
1575321317.179117,1436.32
1575321317.191595,1368.87
1575321317.199784,1317.61
1575321317.208081,1265.54
1575321317.2201731,1230.08
1575321317.228301,1212.24
1575321317.2365701,1198.64
1575321317.245001,1189.02
1575321317.257489,1182.13
1575321317.265428,1175.22
1575321317.274312,1172.9
1575321317.2859762,1175.26
1575321317.293822,1178.42
1575321317.30227,1181.54
1575321317.310127,1183.96
1575321317.323343,1186.85
1575321317.3308852,1191.75
1575321317.339524,1195.6
1575321317.3514612,1194.21
1575321317.359335,1183.96
1575321317.3679192,1167.38
1575321317.375732,1153.79
1575321317.388572,1140.59
1575321317.39642,1134.09
1575321317.405283,1133.46
1575321317.416801,1136.59
1575321317.425442,1142.02
1575321317.4333272,1147.23
1575321317.441268,1155.56
1575321317.453651,1166.89
1575321317.4617841,1177.95
1575321317.4705012,1193.45
1575321317.482236,1209.21
1575321317.491321,1220.32
1575321317.4987378,1230.66
1575321317.507508,1236.59
1575321317.519412,1239.67
1575321317.5274398,1241.77
1575321317.53582,1245.4
1575321317.547727,1250.95
1575321317.556671,1256.89
1575321317.564468,1265.8
1575321317.5730739,1275.33
1575321317.5847528,1282.19
1575321317.59278,1287.38
1575321317.601388,1288.14
1575321317.6133702,1286.92
1575321317.6219509,1285.35
1575321317.629932,1285.87
1575321317.638504,1288.81
1575321317.650382,1295.81
1575321317.658452,1305.83
1575321317.6666,1315.07
1575321317.678936,1326.1
1575321317.6871161,1333.24
1575321317.695169,1335.07
1575321317.704042,1333.0
1575321317.7161448,1328.94
1575321317.724854,1326.7
1575321317.732406,1328.0
1575321317.744542,1334.37
1575321317.7529511,1343.11
1575321317.7607732,1348.49
1575321317.7692502,1351.84
1575321317.781534,1358.56
1575321317.790196,1372.29
1575321317.7978292,1399.01
1575321317.809855,1427.37
1575321317.818187,1445.95
1575321317.826271,1462.66
1575321317.834877,1474.67
1575321317.846991,1482.85
1575321317.8557389,1492.12
1575321317.863433,1499.82
1575321317.876003,1505.55
1575321317.883805,1513.87
1575321317.8918989,1524.4
1575321317.900325,1533.78
1575321317.912467,1543.92
1575321317.922091,1549.03
1575321317.928889,1548.78
1575321317.941331,1544.2
1575321317.949294,1536.48
1575321317.958117,1529.54
1575321317.9656372,1522.15
1575321317.977908,1518.81
1575321317.9862368,1521.3
1575321317.994276,1526.16
1575321318.006939,1531.2
1575321318.014884,1531.73
1575321318.023686,1528.7
1575321318.031368,1522.44
1575321318.043315,1516.74
1575321318.051571,1514.04
1575321318.0597749,1512.59
1575321318.073029,1512.9
1575321318.0802948,1514.21
1575321318.089441,1516.1
1575321318.096837,1516.76
1575321318.1088681,1515.26
1575321318.1173708,1511.84
1575321318.1252759,1513.26
1575321318.138765,1522.24
1575321318.145719,1542.51
1575321318.155591,1566.13
1575321318.162146,1581.69
1575321318.174963,1592.49
1575321318.182724,1594.15
1575321318.1914308,1592.04
1575321318.203247,1589.33
1575321318.21136,1590.41
1575321318.219712,1595.09
1575321318.227833,1599.68
1575321318.2407098,1604.32
1575321318.248569,1606.14
1575321318.2571409,1604.92
1575321318.268859,1599.39
1575321318.276862,1591.15
1575321318.285179,1585.33
1575321318.293273,1582.06
1575321318.306388,1583.78
1575321318.31391,1587.63
1575321318.322783,1593.13
1575321318.334561,1596.61
1575321318.342436,1596.33
1575321318.350815,1591.04
1575321318.358761,1580.63
1575321318.371788,1570.69
1575321318.379447,1559.31
1575321318.388598,1550.77
1575321318.399864,1546.37
1575321318.4080262,1543.75
1575321318.4162939,1543.61
1575321318.42481,1544.46
1575321318.436758,1545.28
1575321318.444812,1545.7
1575321318.453172,1546.06
1575321318.465392,1545.95
1575321318.4742231,1545.37
1575321318.4819598,1544.1
1575321318.490433,1543.38
1575321318.50243,1544.07
1575321318.5104132,1545.64
1575321318.518846,1546.76
1575321318.531126,1547.1
1575321318.540087,1547.04
1575321318.547211,1549.61
1575321318.556009,1559.62
1575321318.56799,1575.76
1575321318.575899,1589.98
1575321318.584468,1606.49
1575321318.596517,1619.7
1575321318.605827,1627.81
1575321318.613088,1636.7
1575321318.622135,1644.74
1575321318.6333592,1649.98
1575321318.641373,1654.21
1575321318.6503649,1655.95
1575321318.6618319,1656.59
1575321318.6715279,1658.24
1575321318.6782432,1661.93
1575321318.686581,1666.78
1575321318.698715,1669.96
1575321318.7075999,1671.94
1575321318.715599,1671.55
1575321318.7273998,1669.31
1575321318.735853,1663.49
1575321318.743795,1654.13
1575321318.752335,1644.49
1575321318.76443,1631.49
1575321318.773397,1620.48
1575321318.7809658,1613.33
1575321318.7933,1605.8
1575321318.801586,1599.62
1575321318.809404,1595.35
1575321318.817746,1589.96
1575321318.830111,1585.03
1575321318.838606,1582.76
1575321318.846439,1583.5
1575321318.858408,1587.79
1575321318.8668458,1591.42
1575321318.8751402,1593.31
1575321318.8831942,1591.99
1575321318.895582,1588.77
1575321318.9036312,1583.42
1575321318.911874,1578.52
1575321318.924393,1575.2
1575321318.932388,1573.74
1575321318.9411461,1571.34
1575321318.948961,1566.99
1575321318.960823,1563.26
1575321318.969273,1562.25
1575321318.9772859,1567.44
1575321318.990498,1574.12
1575321318.997965,1580.55
1575321319.0067341,1581.64
1575321319.014326,1579.46
1575321319.026609,1575.89
1575321319.034899,1574.08
1575321319.043015,1575.09
1575321319.056015,1579.08
1575321319.0635588,1583.38
1575321319.072352,1585.53
1575321319.079823,1586.1
1575321319.091886,1585.32
1575321319.1004028,1584.98
1575321319.1084008,1585.59
1575321319.120745,1586.22
1575321319.1290472,1585.41
1575321319.1371882,1584.94
1575321319.145494,1590.26
1575321319.158114,1602.64
1575321319.165824,1614.96
1575321319.174586,1629.45
1575321319.186252,1640.58
1575321319.194345,1646.41
1575321319.202846,1650.82
1575321319.210847,1653.44
1575321319.22367,1655.11
1575321319.231457,1656.71
1575321319.240118,1656.75
1575321319.25182,1656.51
1575321319.259874,1659.33
1575321319.2682922,1667.81
1575321319.276272,1676.51
1575321319.289839,1685.96
1575321319.296887,1690.85
1575321319.3060648,1690.82
1575321319.3175318,1688.18
1575321319.3254662,1686.09
1575321319.333906,1685.23
1575321319.342138,1682.11
1575321319.354607,1674.52
1575321319.362537,1666.78
1575321319.3706381,1658.03
1575321319.383056,1651.77
1575321319.392117,1647.52
1575321319.399349,1644.5
1575321319.407671,1640.0
1575321319.419899,1635.75
1575321319.4279418,1633.52
1575321319.436289,1631.94
1575321319.448519,1630.16
1575321319.4574149,1627.7
1575321319.464967,1622.99
1575321319.473616,1616.41
1575321319.4853408,1610.17
1575321319.493643,1601.84
1575321319.501663,1594.59
1575321319.514088,1590.29
1575321319.52321,1587.31
1575321319.5304692,1586.3
1575321319.539103,1586.21
1575321319.550982,1586.26
1575321319.558869,1586.29
1575321319.567379,1586.12
1575321319.579394,1584.54
1575321319.588644,1581.38
1575321319.5958881,1580.26
1575321319.606048,1583.12
1575321319.616367,1589.91
1575321319.624972,1596.92
1575321319.6327622,1599.91
1575321319.64499,1599.18
1575321319.653646,1597.2
1575321319.661278,1599.25
1575321319.669642,1610.1
1575321319.681956,1628.97
1575321319.6910348,1645.3
1575321319.698177,1661.08
1575321319.7104409,1668.2
1575321319.718816,1669.27
1575321319.726874,1669.48
1575321319.735219,1670.83
1575321319.7475011,1672.44
1575321319.7571042,1673.64
1575321319.763912,1672.7
1575321319.775997,1669.72
1575321319.784443,1664.19
1575321319.792402,1657.53
1575321319.8008409,1652.14
1575321319.813077,1646.31
1575321319.822447,1643.34
1575321319.8294551,1643.56
1575321319.84171,1645.87
1575321319.849937,1648.43
1575321319.8584058,1649.14
1575321319.8662982,1647.85
1575321319.878623,1643.64
1575321319.886911,1637.24
1575321319.894849,1632.41
1575321319.903145,1628.22
1575321319.915689,1627.84
1575321319.9243221,1630.01
1575321319.9319081,1633.71
1575321319.9439979,1635.05
1575321319.952536,1632.59
1575321319.960393,1627.99
1575321319.968875,1628.13
1575321319.981169,1634.18
1575321319.989747,1646.61
1575321319.997387,1659.59
1575321320.0094268,1668.69
1575321320.0180879,1678.03
1575321320.025871,1684.69
1575321320.034183,1688.31
1575321320.046647,1691.6
1575321320.054639,1694.92
1575321320.062805,1697.83
1575321320.075045,1702.22
1575321320.083534,1706.09
1575321320.092107,1708.65
1575321320.09979,1708.79
1575321320.1121368,1705.01
1575321320.120269,1697.37
1575321320.1283379,1690.21
1575321320.141053,1682.07
1575321320.149117,1675.84
1575321320.158584,1672.12
1575321320.165229,1668.29
1575321320.177393,1663.83
1575321320.1858702,1658.4
1575321320.1939101,1649.46
1575321320.206719,1639.85
1575321320.214666,1633.75
1575321320.223268,1628.94
1575321320.230847,1626.42
1575321320.2428749,1624.93
1575321320.251541,1623.32
1575321320.259396,1622.74
1575321320.272438,1623.87
1575321320.280133,1626.14
1575321320.28888,1626.86
1575321320.296452,1625.93
1575321320.30846,1624.3
1575321320.316967,1623.39
1575321320.325189,1624.24
1575321320.337266,1625.35
1575321320.3455591,1625.72
1575321320.35367,1625.66
1575321320.3619509,1628.16
1575321320.3746161,1636.09
1575321320.3825622,1646.71
1575321320.3913631,1654.92
1575321320.402993,1663.49
1575321320.411045,1669.32
1575321320.4194639,1671.97
1575321320.4273438,1673.25
1575321320.440255,1673.01
1575321320.447975,1671.92
1575321320.4567502,1669.34
1575321320.468385,1665.04
1575321320.4765189,1661.03
1575321320.484992,1656.64
1575321320.4931688,1652.86
1575321320.505789,1649.75
1575321320.5136461,1645.96
1575321320.5224,1643.42
1575321320.53409,1642.18
1575321320.5419588,1641.78
1575321320.55043,1641.58
1575321320.5588539,1639.41
1575321320.5709429,1636.43
1575321320.579011,1632.8
1575321320.587198,1629.96
1575321320.599433,1628.04
1575321320.6083431,1624.86
1575321320.615826,1620.52
1575321320.624589,1616.25
1575321320.636541,1610.63
1575321320.6444101,1605.87
1575321320.653686,1603.95
1575321320.6649148,1604.56
1575321320.673852,1607.14
1575321320.681479,1609.48
1575321320.690609,1610.96
1575321320.701789,1609.5
1575321320.709922,1606.25
1575321320.718378,1601.61
1575321320.730412,1598.76
1575321320.739163,1598.89
1575321320.747085,1601.44
1575321320.7566028,1601.57
1575321320.767505,1592.87
1575321320.776054,1563.08
1575321320.783983,1509.84
1575321320.795978,1437.77
1575321320.805215,1372.58
1575321320.812499,1290.79
1575321320.821571,1217.91
1575321320.833149,1170.08
1575321320.84232,1124.44
1575321320.8495,1091.96
1575321320.861595,1072.9
1575321320.8700001,1055.45
1575321320.877934,1043.52
1575321320.886344,1037.42
1575321320.898707,1033.68
1575321320.9073548,1033.76
1575321320.915019,1035.9
1575321320.926953,1039.3
1575321320.935415,1041.85
1575321320.9436128,1042.83
1575321320.951753,1042.81
1575321320.964055,1042.1
1575321320.972909,1042.1
1575321320.980536,1045.33
1575321320.992485,1052.22
1575321321.001154,1058.77
1575321321.008981,1065.57
1575321321.017432,1069.95
1575321321.0296378,1073.56
1575321321.038249,1077.61
1575321321.0459871,1085.41
1575321321.058476,1095.75
1575321321.06655,1105.28
1575321321.074891,1117.27
1575321321.082904,1128.96
1575321321.094978,1138.52
1575321321.103303,1150.77
1575321321.1113942,1162.12
1575321321.1241841,1169.17
1575321321.1321669,1174.72
1575321321.1410098,1177.82
1575321321.148503,1179.72
1575321321.160539,1183.32
1575321321.1688268,1189.59
1575321321.1769102,1196.84
1575321321.189844,1207.12
1575321321.197286,1215.57
1575321321.2064772,1219.41
1575321321.2138891,1222.03
1575321321.2259881,1224.63
1575321321.234571,1226.9
1575321321.242465,1229.74
1575321321.2548459,1236.0
1575321321.263135,1249.29
1575321321.271127,1264.47
1575321321.279234,1284.91
1575321321.291986,1302.25
1575321321.299741,1312.63
1575321321.308347,1322.66
1575321321.320318,1331.84
1575321321.328508,1339.93
1575321321.3366458,1350.86
1575321321.344775,1361.96
1575321321.35836,1371.47
1575321321.3653052,1384.46
1575321321.37432,1397.56
1575321321.386178,1406.51
1575321321.3946218,1413.65
1575321321.402352,1416.48
1575321321.4107149,1417.44
1575321321.422647,1418.28
1575321321.430901,1418.87
1575321321.439161,1418.82
1575321321.451301,1417.95
1575321321.4596539,1415.95
1575321321.4678028,1412.9
1575321321.476186,1406.93
1575321321.48822,1400.9
1575321321.4963148,1397.58
1575321321.50466,1397.27
1575321321.516871,1398.71
1575321321.5253499,1399.42
1575321321.533159,1399.2
1575321321.541722,1399.0
1575321321.553941,1400.73
1575321321.562203,1404.01
1575321321.570129,1409.99
1575321321.582381,1416.4
1575321321.5912,1420.61
1575321321.598786,1424.34
1575321321.60995,1425.79
1575321321.619242,1425.78
1575321321.6274319,1424.5
1575321321.6357062,1422.36
1575321321.648007,1421.09
1575321321.6569579,1420.98
1575321321.664491,1423.02
1575321321.67278,1425.78
1575321321.684911,1430.33
1575321321.692984,1437.75
1575321321.701313,1449.47
1575321321.7134452,1474.79
1575321321.721784,1507.96
1575321321.72988,1540.25
1575321321.7381608,1561.02
1575321321.750376,1579.2
1575321321.7587972,1590.48
1575321321.766657,1596.22
1575321321.778985,1601.03
1575321321.787233,1603.57
1575321321.7953768,1603.52
1575321321.803675,1601.01
1575321321.815882,1597.12
1575321321.8245919,1593.98
1575321321.832551,1590.43
1575321321.844768,1587.38
1575321321.852708,1584.52
1575321321.860915,1580.42
1575321321.869211,1577.62
1575321321.88154,1577.38
1575321321.8905149,1579.22
1575321321.8978171,1581.59
1575321321.91001,1583.66
1575321321.918358,1588.59
1575321321.926795,1596.49
1575321321.934753,1604.05
1575321321.946944,1613.44
1575321321.9553049,1620.93
1575321321.96336,1624.51
1575321321.9756851,1624.07
1575321321.984113,1620.75
1575321321.993851,1617.25
1575321322.0002828,1616.4
1575321322.012492,1616.92
1575321322.0206988,1617.45
1575321322.0290098,1617.06
1575321322.041748,1615.89
1575321322.0492969,1615.06
1575321322.0580108,1614.75
1575321322.065841,1614.98
1575321322.078248,1616.43
1575321322.086248,1617.98
1575321322.094419,1618.68
1575321322.107472,1616.62
1575321322.1151822,1612.44
1575321322.123107,1605.52
1575321322.1313071,1601.04
1575321322.143588,1602.71
1575321322.1517692,1611.1
1575321322.160482,1621.02
1575321322.1730702,1626.94
1575321322.180374,1630.85
1575321322.188617,1633.33
1575321322.1968021,1635.67
1575321322.209683,1636.45
1575321322.217251,1634.05
1575321322.225971,1627.31
1575321322.237844,1620.72
1575321322.2459369,1613.76
1575321322.254255,1610.02
1575321322.262542,1609.63
1575321322.27506,1611.56
1575321322.282917,1613.71
1575321322.291497,1615.46
1575321322.303276,1617.69
1575321322.311638,1620.42
1575321322.319906,1622.12
1575321322.328011,1623.53
1575321322.3407848,1628.27
1575321322.348434,1636.76
1575321322.3572109,1651.65
1575321322.3691368,1666.92
1575321322.3772779,1676.59
1575321322.3851452,1683.64
1575321322.393497,1685.33
1575321322.4069781,1683.87
1575321322.413846,1679.67
1575321322.4221911,1674.36
1575321322.434428,1669.62
1575321322.4428768,1666.32
1575321322.450714,1663.09
1575321322.459102,1659.61
1575321322.471375,1656.15
1575321322.479404,1652.01
1575321322.487751,1649.26
1575321322.4998772,1648.83
1575321322.508499,1649.4
1575321322.5162408,1649.01
1575321322.52513,1647.44
1575321322.536768,1645.98
1575321322.5450492,1650.92
1575321322.55319,1661.65
1575321322.565481,1680.92
1575321322.574255,1699.91
1575321322.5821362,1710.91
1575321322.591111,1718.1
1575321322.60231,1720.68
1575321322.611472,1721.93
1575321322.620327,1723.91
1575321322.630964,1724.17
1575321322.639151,1721.84
1575321322.647694,1716.86
1575321322.655831,1711.66
1575321322.6680498,1706.25
1575321322.6764202,1700.7
1575321322.684396,1690.95
1575321322.696515,1679.84
1575321322.704776,1673.08
1575321322.7129269,1670.57
1575321322.7212071,1677.14
1575321322.7333481,1687.84
1575321322.742243,1702.23
1575321322.749902,1710.71
1575321322.762101,1710.24
1575321322.770298,1699.36
1575321322.778398,1681.29
1575321322.7866912,1666.83
1575321322.79892,1653.48
1575321322.8075058,1645.84
1575321322.815792,1642.03
1575321322.8279428,1638.4
1575321322.835844,1634.02
1575321322.844055,1629.54
1575321322.8522182,1623.28
1575321322.864437,1617.51
1575321322.8738182,1614.32
1575321322.880943,1611.58
1575321322.893504,1609.35
1575321322.901383,1606.27
1575321322.9101608,1603.27
1575321322.917778,1600.48
1575321322.930157,1599.57
1575321322.938276,1599.53
1575321322.9463522,1598.51
1575321322.958857,1595.69
1575321322.966892,1592.89
1575321322.975476,1590.16
1575321322.9834392,1590.12
1575321322.9956548,1590.96
1575321323.003812,1591.04
1575321323.011882,1589.15
1575321323.024697,1587.38
1575321323.032578,1587.64
1575321323.041327,1592.28
1575321323.049162,1598.87
1575321323.0610611,1607.13
1575321323.069667,1613.13
1575321323.0778391,1618.09
1575321323.090477,1628.46
1575321323.0982342,1644.01
1575321323.106852,1657.26
1575321323.114505,1670.93
1575321323.126564,1680.04
1575321323.1351318,1684.85
1575321323.142928,1686.84
1575321323.156537,1688.12
1575321323.1636329,1688.92
1575321323.17278,1688.74
1575321323.180036,1687.44
1575321323.1925619,1685.8
1575321323.200336,1685.03
1575321323.208548,1684.58
1575321323.221698,1684.17
1575321323.229154,1683.88
1575321323.237977,1683.19
1575321323.245568,1682.67
1575321323.258044,1682.29
1575321323.266262,1681.23
1575321323.274912,1677.81
1575321323.2866812,1672.9
1575321323.294561,1663.25
1575321323.3030798,1650.2
1575321323.310884,1639.7
1575321323.323775,1629.13
1575321323.331744,1622.38
1575321323.3404758,1619.56
1575321323.351935,1618.1
1575321323.3600461,1618.24
1575321323.368672,1618.64
1575321323.3765461,1618.86
1575321323.389484,1619.77
1575321323.397207,1621.02
1575321323.405924,1622.11
1575321323.417436,1622.51
1575321323.425549,1619.77
1575321323.434037,1615.11
1575321323.4422789,1607.43
1575321323.454527,1597.47
1575321323.462558,1584.87
1575321323.470886,1556.75
1575321323.483039,1510.24
1575321323.491631,1460.42
1575321323.4995189,1389.87
1575321323.508331,1321.62
1575321323.519975,1275.42
1575321323.5280159,1231.1
1575321323.5365849,1199.34
1575321323.5485282,1180.71
1575321323.55739,1163.16
1575321323.5649338,1149.43
1575321323.573726,1140.81
1575321323.585435,1134.36
1575321323.593504,1132.75
1575321323.601991,1132.42
1575321323.614197,1131.51
1575321323.62287,1130.29
1575321323.630659,1129.19
1575321323.639675,1129.43
1575321323.651124,1133.11
1575321323.659106,1140.08
1575321323.667408,1146.53
1575321323.679641,1154.6
1575321323.6900852,1162.07
1575321323.695909,1168.0
1575321323.705227,1175.71
1575321323.7166002,1183.3
1575321323.725176,1189.2
1575321323.73297,1198.48
1575321323.7452438,1212.87
1575321323.753612,1227.79
1575321323.761607,1247.1
1575321323.769888,1263.79
1575321323.782324,1274.02
1575321323.791101,1283.61
1575321323.7987819,1290.34
1575321323.8106408,1294.38
1575321323.819177,1298.01
1575321323.827117,1300.75
1575321323.835351,1303.79
1575321323.8476632,1306.22
1575321323.856879,1309.48
1575321323.863928,1312.97
1575321323.872902,1314.69
1575321323.8846269,1311.7
1575321323.892571,1301.73
1575321323.9010592,1290.5
1575321323.91327,1276.32
1575321323.922816,1265.84
1575321323.929603,1260.75
1575321323.93842,1257.81
1575321323.95014,1256.57
1575321323.958496,1255.41
1575321323.966484,1253.85
1575321323.9787982,1252.09
1575321323.987054,1251.58
1575321323.9950259,1252.46
1575321324.003361,1255.25
1575321324.0157042,1258.61
1575321324.0246289,1263.8
1575321324.0320399,1269.24
1575321324.0441349,1273.26
1575321324.0525389,1277.77
1575321324.0607018,1281.66
1575321324.068907,1284.89
1575321324.0811079,1286.69
1575321324.089828,1288.6
1575321324.097533,1290.4
1575321324.109602,1292.09
1575321324.118338,1295.27
1575321324.1270049,1299.63
1575321324.134582,1303.52
1575321324.14668,1307.51
1575321324.155395,1310.77
1575321324.16298,1313.77
1575321324.175261,1319.28
1575321324.183692,1326.27
1575321324.1925151,1331.45
1575321324.199889,1336.67
1575321324.212,1340.2
1575321324.220342,1342.42
1575321324.228668,1343.66
1575321324.2412102,1344.82
1575321324.249022,1349.93
1575321324.257865,1364.66
1575321324.265731,1384.79
1575321324.277621,1400.19
1575321324.2859452,1415.15
1575321324.293975,1426.68
1575321324.3070872,1438.55
1575321324.3146958,1449.17
1575321324.3234859,1462.52
1575321324.331156,1473.8
1575321324.343157,1480.29
1575321324.351733,1484.94
1575321324.359508,1486.07
1575321324.37306,1484.91
1575321324.380196,1482.72
1575321324.388895,1482.65
1575321324.396555,1484.39
1575321324.408698,1485.91
1575321324.4172108,1485.26
1575321324.426125,1482.97
1575321324.437387,1478.81
1575321324.4457421,1474.6
1575321324.453845,1471.44
1575321324.462101,1467.57
1575321324.474195,1463.35
1575321324.4828641,1460.29
1575321324.4913669,1457.87
1575321324.503464,1457.47
1575321324.51108,1458.56
1575321324.519655,1459.87
1575321324.5275588,1459.93
1575321324.5403562,1458.37
1575321324.548307,1456.7
1575321324.556973,1455.87
1575321324.568608,1457.7
1575321324.576618,1460.75
1575321324.585118,1466.64
1575321324.592993,1472.7
1575321324.606248,1475.15
1575321324.613794,1474.16
1575321324.622251,1471.54
1575321324.634207,1472.11
1575321324.6421802,1478.97
1575321324.650601,1490.76
1575321324.658731,1499.95
1575321324.6715982,1508.09
1575321324.6790211,1512.59
1575321324.6896262,1515.94
1575321324.699518,1522.59
1575321324.708587,1532.68
1575321324.715874,1542.21
1575321324.725281,1553.5
1575321324.736628,1562.0
1575321324.7445061,1566.44
1575321324.75305,1568.81
1575321324.7652311,1567.93
1575321324.7742562,1564.02
1575321324.781625,1559.82
1575321324.790318,1555.8
1575321324.802062,1553.5
1575321324.810199,1553.0
1575321324.818701,1553.88
1575321324.8305762,1554.06
1575321324.839801,1550.59
1575321324.847156,1537.72
1575321324.856141,1515.73
1575321324.8676941,1496.93
1575321324.875732,1477.97
1575321324.884083,1465.09
1575321324.8961432,1457.85
1575321324.9052238,1450.96
1575321324.912669,1444.41
1575321324.920855,1439.07
1575321324.933012,1433.18
1575321324.941833,1428.98
1575321324.949573,1426.88
1575321324.961635,1425.2
1575321324.9700842,1423.88
1575321324.977995,1421.76
1575321324.986541,1418.56
1575321324.99865,1416.91
1575321325.007357,1419.58
1575321325.0150652,1424.82
1575321325.027104,1433.3
1575321325.035431,1442.1
1575321325.043581,1449.6
1575321325.052107,1460.76
1575321325.0641751,1473.2
1575321325.0731049,1482.96
1575321325.080598,1493.86
1575321325.092737,1502.42
1575321325.100967,1508.11
1575321325.10908,1513.6
1575321325.1176078,1518.21
1575321325.129727,1521.07
1575321325.139034,1522.14
1575321325.146196,1520.23
1575321325.158456,1517.63
1575321325.16661,1514.0
1575321325.1747909,1510.21
1575321325.183139,1507.06
1575321325.1950688,1502.76
1575321325.2034519,1499.29
1575321325.211624,1498.25
1575321325.2243872,1498.78
1575321325.232317,1499.82
1575321325.240784,1500.07
1575321325.248704,1500.04
1575321325.2605991,1501.09
1575321325.269139,1504.18
1575321325.277094,1507.49
1575321325.290217,1510.87
1575321325.2976482,1511.73
1575321325.306797,1511.36
1575321325.314052,1510.68
1575321325.326151,1509.75
1575321325.334592,1508.42
1575321325.342562,1506.03
1575321325.355642,1502.01
1575321325.3631759,1496.81
1575321325.372206,1488.84
1575321325.3796449,1482.55
1575321325.3917599,1480.1
1575321325.4001842,1479.61
1575321325.408405,1480.58
1575321325.4204931,1481.8
1575321325.428562,1482.85
1575321325.4369988,1485.46
1575321325.444969,1492.69
1575321325.45768,1510.56
1575321325.465863,1535.59
1575321325.4744499,1560.52
1575321325.486133,1576.46
1575321325.494357,1590.86
1575321325.502475,1601.78
1575321325.5104861,1609.56
1575321325.523787,1617.97
1575321325.531272,1622.91
1575321325.540174,1623.15
1575321325.5518022,1619.35
1575321325.559663,1612.48
1575321325.568298,1607.1
1575321325.576134,1603.5
1575321325.589633,1603.84
1575321325.5966709,1605.59
1575321325.6055481,1608.11
1575321325.6171489,1609.09
1575321325.6251771,1607.63
1575321325.633513,1603.51
1575321325.642049,1598.38
1575321325.654041,1594.06
1575321325.662283,1589.65
1575321325.670391,1588.28
1575321325.682624,1590.45
1575321325.691605,1596.17
1575321325.699119,1601.89
1575321325.708407,1604.06
1575321325.7195399,1602.03
1575321325.727572,1597.24
1575321325.735958,1597.1
1575321325.748018,1603.72
1575321325.756978,1618.43
1575321325.7647822,1634.27
1575321325.773143,1643.69
1575321325.785266,1648.37
1575321325.7931788,1646.49
1575321325.801739,1643.55
1575321325.813626,1642.25
1575321325.823287,1645.78
1575321325.830179,1651.0
1575321325.839071,1657.5
1575321325.8509,1661.34
1575321325.859373,1661.48
1575321325.8670661,1658.15
1575321325.879135,1652.94
1575321325.887456,1649.24
1575321325.8957179,1646.2
1575321325.903872,1645.23
1575321325.9161012,1646.69
1575321325.924952,1651.33
1575321325.932501,1657.94
1575321325.944844,1664.44
1575321325.953314,1668.75
1575321325.9611468,1673.27
1575321325.969574,1677.37
1575321325.981722,1680.29
1575321325.99053,1682.62
1575321325.9981902,1682.75
1575321326.0102348,1681.6
1575321326.018701,1679.46
1575321326.026577,1676.05
1575321326.0350459,1672.71
1575321326.047321,1668.81
1575321326.056264,1665.78
1575321326.063689,1663.84
1575321326.076323,1661.69
1575321326.08411,1658.33
1575321326.092515,1654.06
1575321326.1006248,1648.09
1575321326.112788,1642.09
1575321326.1209202,1637.17
1575321326.1291819,1631.96
1575321326.141734,1629.32
1575321326.149736,1628.39
1575321326.158334,1626.8
1575321326.166359,1623.74
1575321326.178244,1620.12
1575321326.1877818,1618.23
1575321326.1946628,1617.69
1575321326.207766,1618.2
1575321326.215163,1617.75
1575321326.2239249,1614.64
1575321326.231661,1608.73
1575321326.243629,1603.47
1575321326.2520409,1597.67
1575321326.260105,1593.53
1575321326.273057,1591.84
1575321326.2807748,1591.62
1575321326.289684,1593.81
1575321326.2971861,1599.08
1575321326.3092322,1610.67
1575321326.317695,1625.39
1575321326.325669,1636.47
1575321326.337985,1647.0
1575321326.3462641,1653.32
1575321326.3544269,1656.24
1575321326.3626812,1658.23
1575321326.3752089,1659.09
1575321326.383065,1659.7
1575321326.391891,1660.67
1575321326.403709,1661.78
1575321326.4117079,1662.55
1575321326.420118,1662.53
1575321326.428084,1661.23
1575321326.4409978,1658.11
1575321326.44895,1655.21
1575321326.457453,1651.61
1575321326.4690938,1648.88
1575321326.477142,1647.3
1575321326.485512,1644.45
1575321326.493532,1639.05
1575321326.5073652,1633.17
1575321326.514189,1625.17
1575321326.5230122,1618.28
1575321326.534645,1615.01
1575321326.542712,1613.7
1575321326.551233,1613.52
1575321326.5591,1613.13
1575321326.572024,1610.72
1575321326.5797179,1607.23
1575321326.5890172,1605.09
1575321326.6003299,1602.44
1575321326.609031,1598.73
1575321326.6166122,1595.38
1575321326.6251671,1592.15
1575321326.637164,1590.72
1575321326.6451461,1591.41
1575321326.653527,1592.7
1575321326.665727,1593.06
1575321326.674618,1591.68
1575321326.6821709,1591.03
1575321326.6918972,1592.62
1575321326.7025962,1598.1
1575321326.710637,1605.07
1575321326.719108,1615.2
1575321326.731458,1624.13
1575321326.740376,1628.5
1575321326.7477481,1630.32
1575321326.756581,1631.12
1575321326.768286,1633.05
1575321326.776171,1636.62
1575321326.784634,1639.26
1575321326.796733,1639.36
1575321326.8053188,1637.68
1575321326.813091,1636.33
1575321326.822156,1636.57
1575321326.8337479,1637.61
1575321326.8420842,1638.2
1575321326.850156,1637.82
1575321326.86225,1637.76
1575321326.870672,1643.21
1575321326.879008,1656.64
1575321326.8871648,1670.07
1575321326.8990579,1684.02
1575321326.9077811,1690.99
1575321326.91593,1692.65
1575321326.927777,1693.1
1575321326.936241,1694.41
1575321326.9441762,1696.36
1575321326.952638,1698.16
1575321326.9647691,1697.67
1575321326.9735801,1695.83
1575321326.9813051,1693.19
1575321326.993279,1691.84
1575321327.001795,1691.59
1575321327.009644,1691.14
1575321327.018174,1689.28
1575321327.0304298,1686.47
1575321327.0392919,1682.37
1575321327.046587,1678.91
1575321327.058908,1677.61
1575321327.067244,1677.35
1575321327.0752482,1675.47
1575321327.083679,1670.58
1575321327.095826,1661.07
1575321327.103915,1651.48
1575321327.1122198,1643.78
1575321327.125056,1638.84
1575321327.132873,1633.15
1575321327.1414442,1626.48
1575321327.1491442,1620.23
1575321327.16116,1611.66
1575321327.169693,1603.41
1575321327.177602,1598.49
1575321327.1909199,1594.48
1575321327.198231,1590.65
1575321327.207347,1588.01
1575321327.2144818,1591.1
1575321327.2267342,1608.19
1575321327.235281,1632.54
1575321327.243123,1669.95
1575321327.256364,1704.26
1575321327.263815,1724.33
1575321327.273227,1739.6
1575321327.280242,1747.26
1575321327.292653,1750.87
1575321327.3007438,1754.66
1575321327.308942,1758.57
1575321327.321074,1761.67
1575321327.3293262,1764.4
1575321327.337467,1765.3
1575321327.345729,1764.33
1575321327.358447,1762.03
1575321327.3662798,1758.13
1575321327.375047,1754.64
1575321327.386774,1752.49
1575321327.394678,1749.06
1575321327.4031732,1743.26
1575321327.411075,1736.62
1575321327.4241989,1725.64
1575321327.4317172,1713.4
1575321327.440321,1704.29
1575321327.452631,1695.2
1575321327.4608011,1689.25
1575321327.468692,1686.85
1575321327.4766378,1684.57
1575321327.4903839,1679.15
1575321327.4972548,1672.09
1575321327.506081,1662.66
1575321327.517995,1656.09
1575321327.526201,1654.95
1575321327.534144,1657.07
1575321327.542162,1659.07
1575321327.554587,1658.0
1575321327.562778,1652.2
1575321327.571019,1643.28
1575321327.5832949,1634.34
1575321327.591933,1628.08
1575321327.599678,1621.57
1575321327.608591,1616.13
1575321327.620085,1612.86
1575321327.6283782,1610.13
1575321327.636548,1608.75
1575321327.6485848,1608.25
1575321327.657475,1608.12
1575321327.665494,1610.59
1575321327.673853,1617.49
1575321327.686122,1634.03
1575321327.694048,1656.02
1575321327.7020879,1672.8
1575321327.714253,1688.76
1575321327.72332,1698.55
1575321327.730674,1702.46
1575321327.7399209,1704.39
1575321327.751248,1704.61
1575321327.759263,1704.41
1575321327.7676852,1704.14
1575321327.779744,1703.93
1575321327.788089,1703.53
1575321327.79635,1701.37
1575321327.804645,1696.78
1575321327.8167748,1690.89
1575321327.825435,1687.37
1575321327.83298,1686.03
1575321327.8454132,1688.01
1575321327.853777,1691.02
1575321327.861679,1694.26
1575321327.870187,1693.69
1575321327.882433,1689.08
1575321327.891243,1679.57
1575321327.89885,1669.68
1575321327.907455,1663.34
1575321327.919178,1658.34
1575321327.927163,1656.55
1575321327.93552,1655.72
1575321327.947799,1654.16
