1575320438.650254,0.0
1575320438.657781,0.0
1575320438.664208,0.0
1575320438.669919,0.0
1575320438.678304,0.0
1575320438.6822321,0.0
1575320438.690374,0.0
1575320438.694407,0.0
1575320438.702749,14.75
1575320438.710773,14.75
1575320438.7162502,14.75
1575320438.723062,57.15
1575320438.7318232,158.39
1575320438.739521,390.5
1575320438.7508879,621.42
1575320438.755848,769.85
1575320438.7644758,888.37
1575320438.772589,982.66
1575320438.784821,1058.78
1575320438.792767,1137.42
1575320438.801126,1201.88
1575320438.81404,1244.77
1575320438.821323,1292.05
1575320438.830364,1338.9
1575320438.83774,1377.3
1575320438.850094,1421.2
1575320438.8582752,1454.61
1575320438.866553,1473.62
1575320438.878716,1490.57
1575320438.8868952,1501.14
1575320438.896791,1503.86
1575320438.903386,1501.58
1575320438.9159539,1497.27
1575320438.923767,1495.31
1575320438.9322,1494.78
1575320438.9443278,1493.04
1575320438.952422,1489.28
1575320438.962083,1483.77
1575320438.968863,1481.98
1575320438.981675,1484.29
1575320438.9892778,1486.28
1575320438.998206,1488.29
1575320439.0099819,1493.02
1575320439.018028,1498.98
1575320439.026309,1505.28
1575320439.034423,1506.48
1575320439.04757,1503.71
1575320439.054941,1500.68
1575320439.064521,1502.97
1575320439.075362,1506.57
1575320439.083637,1510.25
1575320439.091937,1513.42
1575320439.09987,1516.03
1575320439.112366,1517.71
1575320439.120342,1518.48
1575320439.129735,1520.3
1575320439.14099,1523.66
1575320439.1498592,1525.82
1575320439.1575072,1525.86
1575320439.1669781,1525.45
1575320439.177824,1527.48
1575320439.185963,1531.61
1575320439.1942809,1537.6
1575320439.206527,1542.39
1575320439.215752,1545.04
1575320439.2228632,1546.63
1575320439.231788,1550.23
1575320439.2433522,1555.56
1575320439.251486,1559.3
1575320439.260494,1562.15
1575320439.272295,1563.21
1575320439.2815092,1562.4
1575320439.28831,1559.14
1575320439.2981389,1553.97
1575320439.308892,1548.92
1575320439.317031,1542.24
1575320439.325479,1536.2
1575320439.337434,1532.14
1575320439.346359,1528.77
1575320439.354141,1528.29
1575320439.363014,1528.93
1575320439.374397,1526.85
1575320439.3825002,1517.39
1575320439.390968,1505.04
1575320439.3990452,1488.1
1575320439.411826,1474.47
1575320439.419595,1467.37
1575320439.42928,1461.37
1575320439.440154,1456.38
1575320439.448447,1450.34
1575320439.456583,1444.25
1575320439.465146,1436.24
1575320439.477668,1430.68
1575320439.484915,1428.54
1575320439.4962828,1425.72
1575320439.5056372,1421.92
1575320439.5141609,1419.71
1575320439.522076,1418.93
1575320439.530779,1421.36
1575320439.542594,1426.38
1575320439.550539,1435.86
1575320439.558934,1446.03
1575320439.5710201,1451.91
1575320439.580575,1454.82
1575320439.587591,1453.99
1575320439.596421,1453.11
1575320439.60801,1456.17
1575320439.616004,1467.17
1575320439.624479,1480.56
1575320439.636482,1497.48
1575320439.646297,1510.06
1575320439.653078,1516.56
1575320439.665726,1522.52
1575320439.673443,1527.26
1575320439.681631,1529.3
1575320439.689848,1529.56
1575320439.7019992,1530.37
1575320439.710324,1532.79
1575320439.718457,1535.47
1575320439.726738,1538.51
1575320439.739151,1540.11
1575320439.74772,1541.04
1575320439.755615,1543.14
1575320439.7675898,1545.16
1575320439.775923,1545.28
1575320439.784033,1543.39
1575320439.792564,1539.39
1575320439.8046908,1534.53
1575320439.814025,1526.54
1575320439.821103,1517.96
1575320439.8331552,1512.49
1575320439.841677,1509.5
1575320439.849483,1510.27
1575320439.8581371,1511.67
1575320439.8702028,1513.04
1575320439.8793778,1514.39
1575320439.88664,1515.75
1575320439.8989289,1518.44
1575320439.9068968,1521.77
1575320439.915045,1524.18
1575320439.9235709,1524.95
1575320439.935683,1525.13
1575320439.9446452,1525.89
1575320439.9519098,1527.51
1575320439.9644349,1530.35
1575320439.9726799,1532.66
1575320439.9810839,1532.7
1575320439.9890811,1529.28
1575320440.001102,1523.0
1575320440.0095549,1518.39
1575320440.0175118,1515.15
1575320440.0306501,1514.93
1575320440.0381482,1516.03
1575320440.046837,1517.12
1575320440.054629,1516.99
1575320440.066741,1516.77
1575320440.075117,1517.44
1575320440.083065,1519.17
1575320440.097085,1520.79
1575320440.103673,1522.82
1575320440.112492,1524.14
1575320440.120107,1524.7
1575320440.132111,1525.54
1575320440.140831,1527.86
1575320440.148808,1531.74
1575320440.16222,1535.01
1575320440.168946,1538.46
1575320440.1782012,1541.63
1575320440.185415,1543.68
1575320440.19796,1543.86
1575320440.205997,1540.93
1575320440.21428,1537.85
1575320440.226453,1535.94
1575320440.23454,1536.45
1575320440.242904,1537.35
1575320440.2509692,1537.16
1575320440.2642272,1533.89
1575320440.271648,1529.06
1575320440.280597,1521.93
1575320440.292642,1516.66
1575320440.300023,1514.18
1575320440.308609,1512.56
1575320440.3164911,1512.94
1575320440.329428,1515.57
1575320440.337187,1521.72
1575320440.345647,1528.88
1575320440.35769,1533.12
1575320440.365692,1532.58
1575320440.374239,1524.95
1575320440.382045,1514.08
1575320440.395047,1506.17
1575320440.402642,1500.65
1575320440.4114418,1500.61
1575320440.423147,1503.45
1575320440.4314399,1508.6
1575320440.439657,1514.93
1575320440.448821,1521.78
1575320440.459956,1531.02
1575320440.4681559,1536.53
1575320440.476536,1538.49
1575320440.488445,1542.73
1575320440.498146,1552.49
1575320440.505119,1564.81
1575320440.513999,1577.99
1575320440.525662,1573.17
1575320440.533615,1554.59
1575320440.542115,1531.17
1575320440.553986,1527.92
1575320440.5629241,1539.12
1575320440.570569,1548.64
1575320440.579438,1536.43
1575320440.591048,1519.3
1575320440.5992398,1507.98
1575320440.607687,1508.31
1575320440.619493,1505.19
1575320440.629088,1494.97
1575320440.635957,1479.42
1575320440.644329,1470.02
1575320440.6564329,1467.37
1575320440.667891,1468.09
1575320440.672873,1470.7
1575320440.685278,1470.24
1575320440.6933272,1465.25
1575320440.701644,1461.16
1575320440.7098508,1461.3
1575320440.721994,1463.34
1575320440.7305448,1463.29
1575320440.738654,1461.29
1575320440.750842,1458.72
1575320440.758848,1458.69
1575320440.766997,1461.08
1575320440.77544,1464.78
1575320440.78741,1466.02
1575320440.7964642,1464.28
1575320440.804022,1460.36
1575320440.816461,1457.59
1575320440.824268,1458.0
1575320440.832643,1461.35
1575320440.840863,1465.49
1575320440.853037,1467.77
1575320440.862036,1467.91
1575320440.869528,1467.21
1575320440.881869,1467.04
1575320440.889782,1467.29
1575320440.899015,1467.81
1575320440.906323,1468.25
1575320440.918703,1468.46
1575320440.926966,1469.74
1575320440.934952,1473.37
1575320440.948411,1478.23
1575320440.955285,1486.24
1575320440.96414,1493.78
1575320440.971723,1497.91
1575320440.98435,1500.74
1575320440.992414,1502.03
1575320441.0006862,1503.02
1575320441.0135932,1505.08
1575320441.0209558,1508.99
1575320441.030108,1513.6
1575320441.037436,1519.93
1575320441.049891,1525.59
1575320441.057821,1529.11
1575320441.0660312,1532.78
1575320441.078448,1536.96
1575320441.086514,1541.23
1575320441.096102,1544.07
1575320441.102867,1547.85
1575320441.1154728,1552.18
1575320441.1232839,1555.52
1575320441.131962,1559.02
1575320441.144046,1561.05
1575320441.1520371,1560.89
1575320441.161095,1558.34
1575320441.168483,1555.86
1575320441.1811671,1556.12
1575320441.188909,1559.12
1575320441.1985888,1562.38
1575320441.2094772,1562.66
1575320441.217598,1558.35
1575320441.225899,1550.69
1575320441.2340732,1545.7
1575320441.247166,1542.56
1575320441.254702,1540.51
1575320441.262798,1538.03
1575320441.274966,1533.73
1575320441.28321,1529.11
1575320441.291347,1525.59
1575320441.2995908,1522.76
1575320441.313183,1522.52
1575320441.3200269,1524.09
1575320441.329251,1526.79
1575320441.34042,1534.47
1575320441.348844,1547.13
1575320441.3567429,1558.33
1575320441.365411,1570.18
1575320441.3773508,1577.58
1575320441.385459,1579.75
1575320441.393712,1578.42
1575320441.405941,1575.28
1575320441.414505,1573.83
1575320441.422333,1575.97
1575320441.43076,1584.06
1575320441.4430149,1595.09
1575320441.451862,1611.15
1575320441.45926,1623.67
1575320441.471516,1628.18
1575320441.4810948,1626.21
1575320441.487947,1619.57
1575320441.4979148,1615.86
1575320441.508542,1616.28
1575320441.516723,1621.13
1575320441.524915,1625.5
1575320441.537101,1628.86
1575320441.5457761,1629.36
1575320441.5534139,1628.36
1575320441.562776,1627.7
1575320441.5743208,1627.55
1575320441.5829911,1626.69
1575320441.5903108,1624.04
1575320441.602666,1617.96
1575320441.611066,1610.3
1575320441.619002,1603.62
1575320441.6274428,1594.93
1575320441.6393778,1586.55
1575320441.6481001,1580.08
1575320441.656023,1571.73
1575320441.668363,1563.21
1575320441.676523,1556.91
1575320441.684887,1550.02
1575320441.692857,1544.69
1575320441.705151,1542.95
1575320441.715297,1544.84
1575320441.7214432,1550.35
1575320441.733726,1555.01
1575320441.7420921,1558.23
1575320441.7500942,1558.3
1575320441.758678,1556.93
1575320441.7705688,1555.46
1575320441.7796962,1556.46
1575320441.7869802,1559.58
1575320441.799479,1561.9
1575320441.807393,1562.91
1575320441.815795,1562.57
1575320441.8238451,1561.66
1575320441.8361259,1559.73
1575320441.844369,1557.13
1575320441.8525062,1555.57
1575320441.8650339,1555.65
1575320441.872959,1557.57
1575320441.881758,1559.02
1575320441.889326,1558.12
1575320441.901859,1554.8
1575320441.911061,1551.59
1575320441.918189,1547.36
1575320441.9330869,1542.2
1575320441.938602,1537.62
1575320441.9481978,1533.11
1575320441.9548001,1530.54
1575320441.9672651,1529.37
1575320441.975602,1526.82
1575320441.984097,1523.56
1575320441.996755,1522.48
1575320442.0040472,1524.59
1575320442.0132952,1529.61
1575320442.0204659,1534.62
1575320442.0330298,1536.4
1575320442.0408762,1535.05
1575320442.049401,1531.44
1575320442.061344,1528.78
1575320442.069605,1527.41
1575320442.0778759,1529.6
1575320442.08596,1533.71
1575320442.098497,1540.64
1575320442.106346,1546.5
1575320442.114828,1547.89
1575320442.1268868,1543.95
1575320442.135082,1536.74
1575320442.143424,1531.78
1575320442.151606,1528.52
1575320442.166427,1528.28
1575320442.171925,1530.04
1575320442.181387,1534.53
1575320442.1926,1540.41
1575320442.200948,1544.99
1575320442.208878,1548.75
1575320442.2171588,1550.69
1575320442.23012,1552.55
1575320442.2374709,1556.57
1575320442.2466009,1562.11
1575320442.257934,1566.41
1575320442.266412,1566.63
1575320442.274369,1562.49
1575320442.282778,1556.89
1575320442.2948658,1553.91
1575320442.303141,1554.4
1575320442.311369,1558.59
1575320442.3234901,1562.53
1575320442.331899,1566.39
1575320442.339963,1568.98
1575320442.348711,1571.04
1575320442.3604522,1573.23
1575320442.3685179,1573.32
1575320442.376893,1571.8
1575320442.389013,1569.28
1575320442.3979478,1566.44
1575320442.405774,1563.91
1575320442.418317,1559.59
1575320442.425986,1553.1
1575320442.434277,1547.24
1575320442.442355,1540.94
1575320442.454517,1537.02
1575320442.463511,1535.76
1575320442.470892,1535.68
1575320442.48084,1536.74
1575320442.491612,1536.49
1575320442.500055,1533.37
1575320442.5077848,1527.01
1575320442.520187,1522.03
1575320442.529257,1520.64
1575320442.536534,1520.42
1575320442.5451012,1519.26
1575320442.5568871,1517.32
1575320442.5655098,1514.98
1575320442.573496,1514.4
1575320442.585648,1515.94
1575320442.5939672,1520.05
1575320442.602357,1525.2
1575320442.610508,1529.15
1575320442.622529,1533.09
1575320442.630934,1533.94
1575320442.638846,1531.46
1575320442.651169,1526.26
1575320442.659947,1520.69
1575320442.668072,1516.76
1575320442.678089,1512.9
1575320442.688288,1510.78
1575320442.698219,1510.94
1575320442.7044868,1513.92
1575320442.716928,1519.96
1575320442.7251341,1526.69
1575320442.733558,1529.88
1575320442.741361,1530.11
1575320442.753639,1528.82
1575320442.7629051,1528.66
1575320442.7702148,1529.3
1575320442.7824829,1528.35
1575320442.790858,1525.8
1575320442.799579,1522.27
1575320442.807292,1521.14
1575320442.819278,1522.23
1575320442.8293052,1523.88
1575320442.835565,1525.16
1575320442.8479931,1526.71
1575320442.8562381,1529.63
1575320442.8645911,1532.42
1575320442.872654,1533.53
1575320442.884678,1532.31
1575320442.892951,1528.43
1575320442.901252,1524.96
1575320442.915187,1521.95
1575320442.921779,1520.9
1575320442.930797,1521.29
1575320442.938206,1522.51
1575320442.950241,1523.32
1575320442.958744,1522.52
1575320442.966867,1520.37
1575320442.980043,1517.13
1575320442.9872482,1514.11
1575320442.995903,1512.07
1575320443.003656,1510.7
1575320443.015679,1510.94
1575320443.0243719,1510.89
1575320443.03245,1509.45
1575320443.045346,1506.72
1575320443.052791,1503.27
1575320443.061645,1497.11
1575320443.069016,1490.38
1575320443.081219,1486.5
1575320443.089765,1484.75
1575320443.09954,1485.65
1575320443.11049,1487.37
1575320443.118138,1490.39
1575320443.1265569,1493.04
1575320443.134569,1495.53
1575320443.1475258,1499.12
1575320443.155315,1501.06
1575320443.1649501,1500.11
1575320443.175563,1496.11
1575320443.183778,1491.26
1575320443.1921349,1487.78
1575320443.20008,1487.29
1575320443.2130282,1488.23
1575320443.220735,1488.36
1575320443.230442,1488.06
1575320443.241237,1487.88
1575320443.249223,1486.95
1575320443.257807,1485.47
1575320443.2657542,1484.15
1575320443.279001,1483.98
1575320443.286182,1484.58
1575320443.296077,1486.16
1575320443.306839,1487.85
1575320443.3150878,1488.45
1575320443.323285,1487.39
1575320443.3317068,1485.11
1575320443.3435972,1483.59
1575320443.351685,1483.56
1575320443.359956,1486.92
1575320443.3723772,1491.52
1575320443.382294,1498.41
1575320443.388673,1503.46
1575320443.397475,1504.7
1575320443.409264,1503.48
1575320443.417185,1501.79
1575320443.425652,1501.34
1575320443.437587,1501.94
1575320443.447065,1502.38
1575320443.454842,1501.31
1575320443.463579,1499.92
1575320443.47699,1499.13
1575320443.48267,1498.48
1575320443.4912798,1496.29
1575320443.503201,1489.89
1575320443.512425,1481.29
1575320443.519644,1475.27
1575320443.529448,1470.26
1575320443.540255,1467.73
1575320443.548224,1467.59
1575320443.556764,1469.05
1575320443.5658848,1471.02
1575320443.577209,1472.92
1575320443.585108,1476.28
1575320443.593431,1480.56
1575320443.6056662,1483.71
1575320443.614594,1485.87
1575320443.622303,1485.65
1575320443.631495,1483.82
1575320443.642656,1479.9
1575320443.650712,1476.03
1575320443.659727,1474.29
1575320443.6714208,1475.91
1575320443.680346,1482.0
1575320443.6876001,1489.83
1575320443.69711,1495.14
1575320443.708317,1499.46
1575320443.716212,1501.34
1575320443.7244868,1501.88
1575320443.736774,1501.54
1575320443.745752,1501.19
1575320443.753192,1501.81
1575320443.762817,1504.12
1575320443.7739651,1506.65
1575320443.78204,1508.54
1575320443.790242,1510.56
1575320443.802172,1512.58
1575320443.810623,1514.3
1575320443.818608,1516.02
1575320443.828311,1517.23
1575320443.839354,1518.14
1575320443.847858,1519.19
1575320443.855774,1518.06
1575320443.867779,1514.47
1575320443.8762062,1507.61
1575320443.884139,1500.74
1575320443.892576,1495.64
1575320443.904843,1492.5
1575320443.913832,1488.84
1575320443.921174,1485.13
1575320443.933401,1482.67
1575320443.9417129,1481.34
1575320443.949638,1481.95
1575320443.9580932,1482.4
1575320443.970421,1481.65
1575320443.979551,1479.52
1575320443.9867148,1476.52
1575320443.998739,1471.12
1575320444.0074098,1466.03
1575320444.0155551,1463.36
1575320444.023726,1460.83
1575320444.0358431,1458.48
1575320444.046153,1456.69
1575320444.052107,1454.99
1575320444.065164,1454.29
1575320444.072767,1454.98
1575320444.081231,1457.64
1575320444.0892081,1460.97
1575320444.1011672,1462.81
1575320444.109712,1463.82
1575320444.117717,1463.73
1575320444.1307771,1462.51
1575320444.138316,1461.48
1575320444.1477919,1462.67
1575320444.154786,1467.27
1575320444.16678,1472.14
1575320444.175116,1478.63
1575320444.183176,1484.03
1575320444.1963148,1486.71
1575320444.203715,1487.13
1575320444.21296,1485.11
1575320444.220105,1483.37
1575320444.232266,1482.83
1575320444.240947,1483.83
1575320444.249171,1484.44
1575320444.2619789,1484.28
1575320444.269152,1483.91
1575320444.278902,1483.09
1575320444.285802,1480.39
1575320444.298465,1477.78
1575320444.3062599,1477.5
1575320444.314305,1479.61
1575320444.326696,1484.05
1575320444.3347788,1490.05
1575320444.3430772,1501.19
1575320444.351082,1513.13
1575320444.36464,1521.3
1575320444.371804,1524.14
1575320444.381409,1525.7
1575320444.3923929,1528.23
1575320444.400296,1531.39
1575320444.4085279,1535.26
1575320444.416605,1538.15
1575320444.429646,1540.57
1575320444.4373388,1544.58
1575320444.447058,1548.75
1575320444.457977,1551.4
1575320444.465856,1553.36
1575320444.474407,1553.46
1575320444.482375,1551.75
1575320444.497236,1548.83
1575320444.5027761,1547.63
1575320444.512348,1548.5
1575320444.523555,1550.42
1575320444.5312698,1551.17
1575320444.539819,1550.37
1575320444.548416,1547.44
1575320444.560113,1544.31
1575320444.568293,1543.2
1575320444.5769038,1543.73
1575320444.589013,1544.87
1575320444.598548,1545.66
1575320444.605321,1546.53
1575320444.614313,1548.63
1575320444.625891,1551.03
1575320444.63376,1552.42
1575320444.642199,1554.28
1575320444.654325,1557.73
1575320444.663875,1561.36
1575320444.67079,1565.71
1575320444.6796281,1568.16
1575320444.691128,1567.71
1575320444.699266,1564.57
1575320444.7075999,1560.14
1575320444.7197702,1557.43
1575320444.7285829,1557.36
1575320444.7363641,1561.32
1575320444.7453399,1565.8
1575320444.756792,1571.87
1575320444.764765,1578.94
1575320444.7733078,1586.99
1575320444.785334,1599.96
1575320444.7935638,1612.8
1575320444.8018198,1620.77
1575320444.810169,1626.96
1575320444.822399,1629.96
1575320444.83123,1631.38
1575320444.8388312,1631.23
1575320444.850899,1628.15
1575320444.859246,1621.31
1575320444.867166,1615.45
1575320444.875577,1612.1
1575320444.887878,1615.04
1575320444.897419,1621.68
1575320444.904296,1633.6
1575320444.916385,1646.91
1575320444.924716,1657.67
1575320444.9328141,1670.04
1575320444.9413152,1676.45
1575320444.953155,1673.85
1575320444.962059,1661.57
1575320444.9697542,1644.29
1575320444.982613,1629.14
1575320444.9903622,1608.57
1575320444.9987042,1585.24
1575320445.006724,1565.13
1575320445.018836,1539.09
1575320445.027245,1513.49
1575320445.0352561,1494.6
1575320445.048034,1475.26
1575320445.0558898,1463.44
1575320445.0646348,1460.14
1575320445.072298,1461.82
1575320445.084363,1465.32
1575320445.092731,1467.43
1575320445.100632,1468.04
1575320445.114203,1468.88
1575320445.121599,1471.32
1575320445.130733,1475.3
1575320445.137773,1483.31
1575320445.149795,1493.28
1575320445.1582599,1500.34
1575320445.166355,1504.12
1575320445.179397,1500.9
1575320445.18673,1494.43
1575320445.1960802,1484.32
1575320445.2031481,1474.54
1575320445.215285,1468.24
1575320445.2238421,1463.33
1575320445.232318,1463.12
1575320445.245086,1465.98
1575320445.252383,1470.85
1575320445.26054,1474.42
1575320445.26882,1475.18
1575320445.281785,1472.77
1575320445.2893739,1466.01
1575320445.298485,1458.51
1575320445.309725,1457.64
1575320445.317694,1467.71
1575320445.326288,1488.65
1575320445.3342578,1508.09
1575320445.3475258,1528.31
1575320445.354837,1540.19
1575320445.364348,1544.54
1575320445.375308,1545.78
1575320445.3833191,1544.06
1575320445.391745,1542.37
1575320445.399723,1543.23
1575320445.4128032,1550.12
1575320445.4204311,1559.47
1575320445.429688,1572.46
1575320445.44108,1582.88
1575320445.448865,1587.07
1575320445.457418,1585.6
1575320445.465583,1577.65
1575320445.478344,1570.22
1575320445.4856908,1565.88
1575320445.495265,1571.05
1575320445.506463,1580.63
1575320445.514667,1592.74
1575320445.52287,1598.65
1575320445.531595,1595.4
1575320445.5432682,1587.6
1575320445.551244,1577.15
1575320445.5595992,1570.92
1575320445.571748,1570.88
1575320445.580941,1577.3
1575320445.588334,1588.63
1575320445.5972722,1597.54
1575320445.608862,1603.34
1575320445.6167831,1600.18
1575320445.625358,1592.09
1575320445.637356,1578.64
1575320445.6463192,1567.37
1575320445.653994,1562.94
1575320445.662645,1564.48
1575320445.674475,1571.84
1575320445.682289,1578.74
1575320445.690518,1583.81
1575320445.702788,1582.43
1575320445.7119439,1577.38
1575320445.719229,1568.06
1575320445.728576,1559.89
1575320445.7398999,1557.35
1575320445.748757,1560.18
1575320445.756289,1568.4
1575320445.768457,1577.01
1575320445.776769,1580.87
1575320445.784816,1579.93
1575320445.793049,1573.02
1575320445.805456,1565.81
1575320445.815255,1559.25
1575320445.8216379,1557.09
1575320445.8340359,1558.22
1575320445.8424819,1562.95
1575320445.850388,1569.93
1575320445.858631,1574.65
1575320445.870913,1576.36
1575320445.8798091,1573.08
1575320445.887367,1568.02
1575320445.899325,1561.72
1575320445.90801,1557.77
1575320445.915915,1557.2
1575320445.9240232,1558.85
1575320445.9364202,1560.56
1575320445.945419,1561.19
1575320445.952815,1560.99
1575320445.965631,1560.33
1575320445.973428,1559.82
1575320445.9813912,1559.75
1575320445.989902,1560.7
1575320446.001684,1561.97
1575320446.010192,1561.82
1575320446.018202,1558.78
1575320446.031008,1552.65
1575320446.0389462,1546.84
1575320446.048979,1540.56
1575320446.055232,1535.26
1575320446.0673752,1531.25
1575320446.0757928,1526.87
1575320446.0836868,1523.55
1575320446.096664,1522.98
1575320446.104432,1524.36
1575320446.1132522,1526.11
1575320446.120758,1526.66
1575320446.132919,1525.99
1575320446.141361,1524.7
1575320446.149292,1523.4
1575320446.162771,1522.63
1575320446.1698828,1522.22
1575320446.179792,1521.04
1575320446.1862872,1518.17
1575320446.199061,1515.08
1575320446.206677,1513.03
1575320446.215561,1510.78
1575320446.227993,1507.33
1575320446.2353,1502.09
1575320446.243524,1497.53
1575320446.251703,1491.6
1575320446.264394,1482.72
1575320446.2725272,1470.86
1575320446.281784,1450.12
1575320446.292895,1427.94
1575320446.300811,1412.36
1575320446.309298,1396.35
1575320446.317163,1384.16
1575320446.330522,1376.99
1575320446.337963,1370.91
1575320446.346679,1367.26
1575320446.35861,1366.05
1575320446.3662999,1367.37
1575320446.3748322,1370.11
1575320446.382853,1371.32
1575320446.3954859,1371.0
1575320446.40355,1369.97
1575320446.412443,1370.22
1575320446.424038,1372.43
1575320446.431927,1375.82
1575320446.44035,1378.03
1575320446.448386,1380.37
1575320446.460792,1384.85
1575320446.4689002,1394.72
1575320446.4770439,1408.92
1575320446.4894662,1435.34
1575320446.499412,1466.35
1575320446.505792,1488.89
1575320446.514744,1509.89
1575320446.5263538,1522.84
1575320446.534347,1529.87
1575320446.5428421,1538.32
1575320446.5547562,1547.07
1575320446.564021,1553.47
1575320446.571567,1558.63
1575320446.580361,1559.52
1575320446.5919209,1558.34
1575320446.5998652,1556.7
1575320446.608215,1556.76
1575320446.620283,1558.28
1575320446.629339,1561.89
1575320446.6369312,1566.73
1575320446.6456902,1570.52
1575320446.657562,1572.65
1575320446.6662972,1569.85
1575320446.673814,1565.23
1575320446.6859221,1560.41
1575320446.696262,1560.1
1575320446.7022588,1563.9
1575320446.711155,1568.34
1575320446.7226398,1574.55
1575320446.730908,1580.51
1575320446.73936,1583.37
1575320446.751436,1582.4
1575320446.759736,1575.9
1575320446.7678,1568.98
1575320446.776171,1563.23
1575320446.788419,1563.37
1575320446.7978802,1566.85
1575320446.804872,1571.27
1575320446.816837,1571.61
1575320446.825453,1568.86
1575320446.833278,1565.42
1575320446.841737,1565.72
1575320446.8540218,1568.66
1575320446.862911,1572.9
1575320446.8704178,1574.92
1575320446.8830762,1575.43
1575320446.891001,1576.38
1575320446.898924,1578.18
1575320446.9073439,1579.17
1575320446.919219,1579.25
1575320446.928572,1579.11
1575320446.9358568,1579.89
1575320446.9491389,1581.0
1575320446.956382,1580.75
1575320446.9647949,1576.98
1575320446.972896,1572.45
1575320446.9848378,1567.62
1575320446.993137,1565.1
1575320447.0012338,1564.17
1575320447.015339,1563.03
1575320447.021875,1561.12
1575320447.031586,1559.52
1575320447.0381272,1557.44
1575320447.0503411,1555.65
1575320447.0587788,1555.95
1575320447.066848,1559.09
1575320447.080023,1562.53
1575320447.0872588,1563.25
1575320447.096662,1561.66
1575320447.103574,1560.49
1575320447.1159208,1561.79
1575320447.1242812,1566.06
1575320447.134061,1570.59
1575320447.146359,1572.33
1575320447.152886,1571.31
1575320447.162519,1568.6
1575320447.169191,1566.72
1575320447.184045,1566.96
1575320447.190204,1569.79
1575320447.199662,1574.35
1575320447.2131908,1577.43
1575320447.218672,1578.77
1575320447.229134,1577.2
1575320447.235476,1574.69
1575320447.247772,1570.96
1575320447.255234,1567.17
1575320447.264016,1565.2
1575320447.275729,1564.16
1575320447.283832,1561.18
1575320447.292185,1554.91
1575320447.3003142,1543.29
1575320447.313505,1532.89
1575320447.3207018,1528.59
1575320447.331151,1528.97
1575320447.341409,1533.86
1575320447.35093,1538.63
1575320447.358036,1543.25
1575320447.367682,1545.88
1575320447.379271,1547.15
1575320447.386378,1548.98
1575320447.395724,1553.1
1575320447.4073448,1559.9
1575320447.414989,1565.49
1575320447.423199,1570.31
1575320447.431306,1572.47
1575320447.4451342,1572.78
1575320447.4519591,1571.85
1575320447.460906,1570.63
1575320447.4722471,1570.07
1575320447.481167,1569.81
1575320447.488677,1570.04
1575320447.49861,1570.06
1575320447.515498,1568.27
1575320447.51731,1566.02
1575320447.526007,1565.33
1575320447.537917,1566.19
1575320447.5474062,1567.56
1575320447.5545459,1567.64
1575320447.5631459,1566.41
1575320447.574749,1564.22
1575320447.582911,1562.77
1575320447.59122,1562.52
1575320447.599293,1563.56
1575320447.61272,1564.41
1575320447.619693,1563.88
1575320447.6283588,1560.78
1575320447.640202,1556.24
1575320447.648748,1552.67
1575320447.656686,1549.54
1575320447.6692748,1547.72
1575320447.682713,1546.98
1575320447.6865652,1547.26
1575320447.701016,1547.92
1575320447.7057679,1547.69
1575320447.715035,1545.73
1575320447.72224,1542.51
1575320447.730886,1540.13
1575320447.7448452,1538.08
1575320447.751723,1537.04
1575320447.763883,1536.7
1575320447.7713,1535.82
1575320447.78293,1534.34
1575320447.7876859,1532.36
1575320447.797193,1529.5
1575320447.8085692,1527.51
1575320447.818203,1527.08
1575320447.831425,1525.97
1575320447.8404522,1519.67
1575320447.846829,1509.26
1575320447.8532228,1492.88
1575320447.8626401,1478.45
1575320447.873645,1468.77
1575320447.883208,1464.07
1575320447.8900611,1460.95
1575320447.902453,1459.85
1575320447.9111848,1459.24
1575320447.918735,1457.77
1575320447.9280121,1454.54
1575320447.9392881,1450.72
1575320447.947752,1446.41
1575320447.955571,1445.79
1575320447.9679282,1448.25
1575320447.976177,1451.61
1575320447.984282,1451.85
1575320447.9926121,1449.66
1575320448.004852,1445.7
1575320448.0149372,1442.9
1575320448.021303,1443.2
1575320448.0333922,1449.05
1575320448.041753,1462.66
1575320448.049802,1477.71
1575320448.0580559,1497.0
1575320448.070503,1513.18
1575320448.079058,1523.81
1575320448.086905,1535.01
1575320448.098973,1544.13
1575320448.107491,1550.49
1575320448.115865,1554.38
1575320448.12388,1559.18
1575320448.135848,1562.92
1575320448.145174,1564.04
1575320448.152344,1563.04
1575320448.165097,1559.72
1575320448.173005,1556.85
1575320448.182313,1554.76
1575320448.189458,1554.81
1575320448.201547,1556.19
1575320448.209883,1557.87
1575320448.217906,1558.39
1575320448.231649,1558.28
1575320448.238434,1558.02
1575320448.247803,1557.93
1575320448.254836,1557.71
1575320448.26695,1556.03
1575320448.2755609,1551.95
1575320448.28328,1547.01
1575320448.297143,1540.15
1575320448.303945,1535.52
1575320448.312767,1535.05
1575320448.320446,1536.6
1575320448.3323789,1537.75
1575320448.341056,1537.05
1575320448.34899,1534.68
1575320448.3619862,1529.39
1575320448.3694808,1523.76
1575320448.3782651,1521.7
1575320448.385849,1524.18
1575320448.398447,1532.2
1575320448.406516,1540.61
1575320448.4154549,1549.55
1575320448.426819,1550.92
1575320448.434771,1543.5
1575320448.443352,1524.48
1575320448.451333,1501.88
1575320448.464703,1486.71
1575320448.4720151,1473.42
1575320448.481673,1462.75
1575320448.49524,1453.39
1575320448.501787,1441.47
1575320448.508693,1432.0
1575320448.517623,1427.78
1575320448.5297122,1427.1
1575320448.537364,1430.45
1575320448.5454552,1434.69
1575320448.5578392,1439.46
1575320448.5675719,1441.23
1575320448.5742888,1438.74
1575320448.582381,1433.98
1575320448.598062,1426.68
1575320448.604179,1420.0
1575320448.6132128,1415.51
1575320448.6232378,1410.11
1575320448.631422,1403.88
1575320448.639671,1398.52
1575320448.647972,1391.85
1575320448.6608,1385.92
1575320448.6685078,1383.2
1575320448.677842,1384.14
1575320448.688753,1390.6
1575320448.697361,1398.48
1575320448.706673,1409.3
1575320448.714175,1419.5
1575320448.727443,1426.21
1575320448.7340212,1430.84
1575320448.7430332,1431.71
1575320448.754496,1431.41
1575320448.762767,1431.87
1575320448.770889,1433.72
1575320448.780554,1435.45
1575320448.791348,1436.2
1575320448.7993758,1434.67
1575320448.8080199,1431.86
1575320448.8200839,1429.95
1575320448.8290749,1428.8
1575320448.8362129,1429.11
1575320448.845937,1431.5
1575320448.856732,1437.68
1575320448.864921,1445.21
1575320448.873523,1450.74
1575320448.885407,1456.06
1575320448.893687,1460.24
1575320448.9019258,1463.77
1575320448.910336,1469.16
1575320448.92257,1476.33
1575320448.9311109,1482.32
1575320448.939001,1487.4
1575320448.950988,1489.01
1575320448.959451,1488.84
1575320448.967318,1487.67
1575320448.9758022,1485.3
1575320448.98797,1482.95
1575320448.996727,1480.27
1575320449.00448,1478.22
1575320449.016421,1477.45
1575320449.024916,1477.17
1575320449.033002,1476.9
1575320449.041527,1476.17
1575320449.053324,1475.13
1575320449.0623171,1473.9
1575320449.0697641,1473.69
1575320449.081986,1473.99
1575320449.0902889,1474.43
1575320449.0984268,1475.19
1575320449.106882,1475.86
1575320449.119031,1475.84
1575320449.12743,1475.58
1575320449.1353788,1476.14
1575320449.148133,1477.94
1575320449.156041,1480.43
1575320449.1659331,1481.39
1575320449.172375,1479.16
1575320449.184463,1473.92
1575320449.194144,1470.01
1575320449.2010381,1467.61
1575320449.213888,1467.13
1575320449.221638,1466.57
1575320449.231194,1465.25
1575320449.2379,1463.52
1575320449.249975,1463.08
1575320449.258394,1464.56
1575320449.2663271,1466.96
1575320449.2798111,1470.37
1575320449.286978,1476.97
1575320449.29637,1493.85
1575320449.3031979,1517.0
1575320449.315488,1534.35
1575320449.3240058,1549.16
1575320449.332222,1556.36
1575320449.344398,1559.09
1575320449.352493,1560.87
1575320449.360713,1561.25
1575320449.368912,1560.04
1575320449.381804,1556.14
1575320449.3895302,1550.73
1575320449.398633,1546.56
1575320449.409803,1542.89
1575320449.4178932,1541.73
1575320449.426466,1542.6
1575320449.434416,1544.55
1575320449.4476411,1546.37
1575320449.455043,1547.92
1575320449.464332,1550.93
1575320449.475487,1555.19
1575320449.483459,1558.41
1575320449.49177,1561.19
1575320449.499807,1563.15
1575320449.5137558,1564.55
1575320449.520452,1564.63
1575320449.529378,1562.84
1575320449.541278,1559.72
1575320449.5489438,1558.15
1575320449.557586,1558.73
1575320449.566019,1561.22
1575320449.578481,1563.87
1575320449.585852,1567.52
1575320449.59568,1570.64
1575320449.606403,1571.89
1575320449.6149929,1569.49
1575320449.6230242,1557.59
1575320449.6322188,1538.52
1575320449.643324,1504.84
1575320449.6513228,1469.8
1575320449.6598332,1447.93
1575320449.672013,1431.11
1575320449.6805341,1421.38
1575320449.688558,1414.38
1575320449.701209,1404.29
1575320449.708787,1394.07
1575320449.7170959,1387.47
1575320449.725257,1382.29
1575320449.7375932,1379.76
1575320449.746636,1379.3
1575320449.753967,1381.97
1575320449.7638059,1389.74
1575320449.7746692,1399.52
1575320449.7825222,1406.26
1575320449.791062,1411.37
1575320449.8030138,1413.37
1575320449.8126001,1413.86
1575320449.819499,1413.76
1575320449.827871,1414.21
1575320449.839929,1415.29
1575320449.84817,1416.85
1575320449.856524,1418.96
1575320449.868533,1421.32
1575320449.876742,1424.62
1575320449.884962,1427.18
1575320449.89341,1428.11
1575320449.905474,1428.66
1575320449.913988,1429.46
1575320449.9220731,1431.29
1575320449.934103,1435.25
1575320449.9425302,1439.71
1575320449.950376,1443.65
1575320449.9587572,1449.86
1575320449.971044,1457.87
1575320449.9799051,1466.63
1575320449.987623,1472.6
1575320449.9994738,1477.38
1575320450.0080872,1478.28
1575320450.015989,1476.69
1575320450.02463,1473.78
1575320450.0364008,1471.51
1575320450.044897,1470.88
1575320450.052835,1471.5
1575320450.064984,1473.64
1575320450.073312,1476.12
1575320450.081616,1478.36
1575320450.089758,1477.81
1575320450.101994,1474.69
1575320450.1103349,1467.48
1575320450.118437,1458.14
1575320450.131698,1450.91
1575320450.13905,1444.12
1575320450.147875,1439.52
1575320450.15537,1436.39
1575320450.167608,1433.08
1575320450.17597,1431.31
1575320450.183947,1431.19
1575320450.1972558,1432.11
1575320450.2045429,1434.04
1575320450.2142222,1436.48
1575320450.2211132,1438.84
1575320450.2330189,1442.15
1575320450.2416031,1444.59
1575320450.24948,1445.69
1575320450.262489,1445.99
1575320450.269923,1445.8
1575320450.279105,1445.45
1575320450.2865438,1444.16
1575320450.2984781,1442.27
1575320450.306902,1440.59
1575320450.3149629,1438.3
1575320450.3274539,1441.01
1575320450.3354409,1454.02
1575320450.3437371,1488.78
1575320450.351995,1541.47
1575320450.3647292,1589.15
1575320450.372589,1644.03
1575320450.3815858,1687.71
1575320450.393114,1714.96
1575320450.401012,1740.76
1575320450.409528,1757.98
1575320450.417362,1766.56
1575320450.430857,1772.42
1575320450.438057,1774.78
1575320450.447257,1775.71
1575320450.458451,1775.51
1575320450.4665852,1773.44
1575320450.4749491,1770.56
1575320450.48292,1769.14
1575320450.498313,1769.71
1575320450.503372,1772.16
1575320450.5123782,1773.53
1575320450.5242329,1770.5
1575320450.532237,1760.29
1575320450.540559,1747.35
1575320450.5488598,1726.7
1575320450.56086,1704.94
1575320450.568963,1688.44
1575320450.5772648,1670.22
1575320450.589409,1656.21
1575320450.598803,1648.8
1575320450.6059468,1644.77
1575320450.614836,1645.93
1575320450.626504,1649.62
1575320450.634449,1655.42
1575320450.6429172,1658.52
1575320450.654898,1657.4
1575320450.663102,1652.46
1575320450.671605,1647.27
1575320450.681778,1644.43
1575320450.692082,1643.6
1575320450.699927,1643.18
1575320450.708147,1641.56
1575320450.720602,1638.96
1575320450.7294981,1635.18
1575320450.7369442,1632.84
1575320450.745697,1633.01
1575320450.7575822,1635.32
1575320450.765493,1637.93
1575320450.774028,1638.96
1575320450.7860339,1638.43
1575320450.795413,1636.37
1575320450.802541,1633.39
1575320450.811198,1628.15
1575320450.8230479,1622.66
1575320450.831868,1619.52
1575320450.839372,1618.08
1575320450.851531,1618.66
1575320450.86001,1619.57
1575320450.868008,1620.37
1575320450.876522,1620.76
1575320450.888628,1621.43
1575320450.8977559,1623.79
1575320450.905097,1628.18
1575320450.917098,1633.35
1575320450.9254432,1637.23
1575320450.933572,1641.73
1575320450.941795,1645.61
1575320450.954241,1648.07
1575320450.962995,1650.97
1575320450.97056,1654.31
1575320450.9826088,1657.29
1575320450.991183,1660.91
1575320450.999011,1664.52
1575320451.007505,1667.22
1575320451.019617,1668.86
1575320451.028158,1667.12
1575320451.035895,1663.02
1575320451.0481632,1654.09
1575320451.056592,1636.88
1575320451.064935,1613.35
1575320451.072901,1569.33
1575320451.084928,1513.79
1575320451.093266,1468.23
1575320451.101365,1417.95
1575320451.114099,1380.0
1575320451.12212,1357.39
1575320451.1312928,1334.94
1575320451.1384242,1317.08
1575320451.150514,1304.56
1575320451.159084,1299.09
1575320451.167017,1297.77
1575320451.179883,1299.97
1575320451.1875699,1302.12
1575320451.196564,1302.82
1575320451.204087,1301.09
1575320451.2163572,1298.33
1575320451.224652,1293.62
1575320451.2324328,1289.07
1575320451.245502,1286.78
1575320451.253089,1284.81
1575320451.262197,1284.52
1575320451.269504,1289.09
1575320451.281575,1306.03
1575320451.290035,1333.84
1575320451.298623,1358.0
1575320451.310345,1384.59
1575320451.31849,1404.91
1575320451.3270369,1417.5
1575320451.334826,1429.76
1575320451.3479512,1438.72
1575320451.355646,1443.81
1575320451.3647628,1450.48
1575320451.376093,1459.57
1575320451.384066,1469.81
1575320451.392353,1477.38
1575320451.400362,1485.08
1575320451.413661,1490.55
1575320451.4211211,1492.77
1575320451.429871,1493.54
1575320451.441765,1492.98
1575320451.449595,1493.06
1575320451.458213,1496.19
1575320451.465941,1502.91
1575320451.479103,1509.12
1575320451.48663,1514.77
1575320451.49562,1516.08
1575320451.5072331,1514.69
1575320451.515133,1512.81
1575320451.5235999,1513.17
1575320451.5323799,1515.24
1575320451.543854,1519.24
1575320451.552167,1523.16
1575320451.560632,1525.21
1575320451.568344,1526.4
1575320451.581763,1526.2
1575320451.588908,1524.69
1575320451.598283,1521.04
1575320451.609348,1516.58
1575320451.617663,1512.07
1575320451.626014,1507.94
1575320451.633871,1501.57
1575320451.647138,1494.39
1575320451.654614,1488.24
1575320451.6634722,1480.54
1575320451.675093,1474.25
1575320451.683061,1471.16
1575320451.69144,1470.69
1575320451.699391,1475.05
1575320451.713137,1482.05
1575320451.7198458,1493.56
1575320451.728807,1505.18
1575320451.7407901,1512.41
1575320451.748676,1517.18
1575320451.7570891,1518.22
1575320451.765815,1517.69
1575320451.777659,1517.01
1575320451.785633,1516.71
1575320451.7937632,1516.62
1575320451.806176,1516.85
1575320451.8159091,1516.61
1575320451.822471,1515.39
1575320451.8313322,1511.19
1575320451.8428211,1503.33
1575320451.8509471,1492.79
1575320451.8592799,1485.45
1575320451.871719,1481.97
1575320451.8807878,1485.54
1575320451.887876,1491.28
1575320451.897841,1498.74
1575320451.9084811,1504.37
1575320451.9166,1506.99
1575320451.925189,1507.22
1575320451.93698,1502.14
1575320451.946732,1493.99
1575320451.9534762,1481.75
1575320451.9624808,1474.18
1575320451.974143,1475.39
1575320451.9824169,1485.47
1575320451.9905438,1500.44
1575320452.0025039,1511.55
1575320452.011604,1519.25
1575320452.0190878,1517.56
1575320452.027463,1511.03
1575320452.039517,1501.36
1575320452.048107,1495.75
1575320452.056084,1496.21
1575320452.068081,1501.8
1575320452.076417,1510.29
1575320452.084461,1519.06
1575320452.093028,1524.21
1575320452.1049001,1526.28
1575320452.1143522,1522.65
1575320452.121516,1516.42
1575320452.133661,1507.24
1575320452.142066,1499.34
1575320452.150079,1495.14
1575320452.158454,1494.19
1575320452.17052,1497.43
1575320452.179911,1501.23
1575320452.1871202,1504.57
1575320452.199167,1505.13
1575320452.2079518,1504.2
1575320452.2157419,1502.78
1575320452.223872,1503.1
1575320452.236167,1505.12
1575320452.244528,1510.78
1575320452.252506,1519.53
1575320452.265184,1527.09
1575320452.272956,1533.52
1575320452.281601,1533.86
1575320452.289459,1530.62
1575320452.301554,1524.94
1575320452.309942,1521.0
1575320452.317867,1520.99
1575320452.3310552,1523.68
1575320452.338583,1528.34
1575320452.347283,1531.41
1575320452.3551118,1531.84
1575320452.367142,1529.4
1575320452.375401,1524.7
1575320452.38347,1521.6
1575320452.397256,1521.46
1575320452.4041338,1526.67
1575320452.4132879,1534.83
1575320452.420536,1547.83
1575320452.43275,1558.98
1575320452.4411252,1562.18
1575320452.449714,1555.52
1575320452.462611,1538.54
1575320452.469779,1521.56
1575320452.479087,1502.91
1575320452.486027,1492.36
1575320452.499433,1490.66
1575320452.506644,1493.0
1575320452.5156128,1491.71
1575320452.5270221,1484.3
1575320452.535008,1469.14
1575320452.543545,1454.29
1575320452.551379,1445.48
1575320452.564638,1443.98
1575320452.572143,1448.11
1575320452.5808058,1458.24
1575320452.592586,1468.61
1575320452.600536,1479.76
1575320452.608971,1484.08
1575320452.6169112,1480.98
1575320452.630251,1469.46
1575320452.637632,1455.64
1575320452.646593,1448.02
1575320452.658297,1446.6
1575320452.666191,1454.3
1575320452.674668,1464.88
1575320452.684269,1478.2
1575320452.696511,1485.84
1575320452.7031949,1485.37
1575320452.712675,1477.89
1575320452.723391,1468.74
1575320452.7318919,1464.54
1575320452.740119,1465.58
1575320452.7492201,1471.83
1575320452.76043,1478.77
1575320452.768537,1486.92
1575320452.776819,1490.1
1575320452.789015,1485.06
1575320452.797896,1475.67
1575320452.80554,1462.11
1575320452.814456,1456.77
1575320452.826106,1464.97
1575320452.8340402,1490.58
1575320452.84251,1525.02
1575320452.854441,1551.33
1575320452.863255,1575.32
1575320452.8712058,1587.34
1575320452.879321,1589.65
1575320452.891681,1586.94
1575320452.899534,1583.24
1575320452.907725,1582.98
1575320452.919948,1587.94
1575320452.9293382,1596.89
1575320452.936563,1604.62
1575320452.9457228,1611.26
1575320452.9571562,1611.1
1575320452.9659011,1605.89
1575320452.973462,1594.86
1575320452.985573,1580.2
1575320452.993931,1567.25
1575320453.001923,1553.08
1575320453.010337,1545.42
1575320453.022709,1545.65
1575320453.0322418,1549.86
1575320453.039105,1556.08
1575320453.051202,1559.61
1575320453.0596921,1559.45
1575320453.067522,1555.38
1575320453.075969,1548.51
1575320453.0879629,1542.72
1575320453.097732,1537.55
1575320453.10448,1537.73
1575320453.1166248,1543.36
1575320453.125231,1555.76
1575320453.133118,1567.4
1575320453.14162,1570.01
1575320453.1537979,1562.42
1575320453.162984,1548.11
1575320453.1699169,1538.36
1575320453.182163,1534.22
1575320453.190662,1540.43
1575320453.199548,1550.93
1575320453.2069,1566.19
1575320453.219195,1577.51
1575320453.227852,1580.66
1575320453.2356071,1575.57
1575320453.2481961,1562.88
1575320453.256213,1548.68
1575320453.265318,1540.62
1575320453.272626,1537.94
1575320453.284605,1543.73
1575320453.293031,1551.51
1575320453.30112,1560.41
1575320453.314325,1563.58
1575320453.321682,1559.42
1575320453.33121,1546.29
1575320453.3380961,1530.29
1575320453.350129,1520.28
1575320453.3586812,1514.5
1575320453.366679,1515.01
1575320453.379411,1517.52
1575320453.3871539,1521.46
1575320453.3958359,1524.77
1575320453.403562,1526.63
1575320453.4156249,1528.08
1575320453.424146,1528.49
1575320453.432222,1525.76
1575320453.445824,1516.94
1575320453.45254,1505.55
1575320453.4619,1498.43
1575320453.469138,1494.84
1575320453.481398,1496.15
1575320453.489698,1498.54
1575320453.499233,1499.58
1575320453.510061,1501.84
1575320453.5180821,1508.77
1575320453.5266528,1516.64
1575320453.534434,1524.9
1575320453.547796,1524.17
1575320453.555053,1514.78
1575320453.5647302,1495.76
1575320453.5757592,1476.47
1575320453.583957,1466.42
1575320453.591977,1463.95
1575320453.6000059,1473.13
1575320453.613274,1486.46
1575320453.6206489,1505.51
1575320453.629319,1521.0
1575320453.6412768,1527.55
1575320453.649153,1526.68
1575320453.6576278,1517.44
1575320453.666666,1507.91
1575320453.677815,1498.95
1575320453.686395,1496.2
1575320453.698314,1498.6
1575320453.7065878,1505.83
1575320453.71547,1515.14
1575320453.72277,1524.12
1575320453.731016,1529.83
1575320453.7435782,1534.43
1575320453.751513,1535.24
1575320453.75997,1533.66
1575320453.772068,1531.09
1575320453.781447,1529.87
1575320453.788648,1530.52
1575320453.79808,1532.23
1575320453.8090901,1534.2
1575320453.817164,1535.69
1575320453.825521,1536.86
1575320453.837706,1536.46
1575320453.846591,1534.86
1575320453.854197,1533.01
1575320453.863071,1534.89
1575320453.8748019,1539.99
1575320453.882636,1548.3
1575320453.8911371,1554.61
1575320453.9031,1557.46
1575320453.91209,1560.07
1575320453.9196758,1564.57
1575320453.928444,1569.9
1575320453.9402308,1576.8
1575320453.949188,1581.85
1575320453.956531,1583.52
1575320453.9687738,1581.93
1575320453.977092,1576.5
1575320453.9850729,1567.96
1575320453.993612,1560.36
1575320454.005646,1551.44
1575320454.014522,1545.05
1575320454.022221,1543.28
1575320454.034265,1545.56
1575320454.0425448,1551.61
1575320454.050547,1558.21
1575320454.058935,1566.64
1575320454.071168,1572.4
1575320454.080128,1573.67
1575320454.087487,1570.99
1575320454.0996742,1566.24
1575320454.1080692,1562.9
1575320454.116108,1559.23
1575320454.124219,1555.84
1575320454.136472,1553.86
1575320454.1458402,1553.31
1575320454.152961,1554.84
1575320454.1655412,1557.43
1575320454.173579,1561.9
1575320454.181654,1565.79
1575320454.1901598,1567.81
1575320454.2022002,1568.82
1575320454.2119198,1571.15
1575320454.2187788,1575.35
1575320454.2311602,1579.43
1575320454.239286,1583.13
1575320454.248884,1581.96
1575320454.255559,1577.17
1575320454.267838,1568.58
1575320454.276155,1559.72
1575320454.2841978,1553.26
1575320454.297906,1549.46
1575320454.30466,1557.92
1575320454.3134642,1578.47
1575320454.32113,1623.73
1575320454.333127,1689.45
1575320454.3417642,1754.58
1575320454.3495228,1847.49
1575320454.362792,1946.96
1575320454.370092,2027.42
1575320454.3791392,2127.57
1575320454.38665,2226.19
1575320454.398921,2303.18
1575320454.4071538,2396.07
1575320454.41569,2482.08
1575320454.427605,2558.32
1575320454.43561,2611.52
1575320454.444256,2668.93
1575320454.452093,2717.26
1575320454.464879,2750.63
1575320454.4727402,2787.42
1575320454.4825542,2819.74
1575320454.493421,2841.98
1575320454.5011609,2864.59
1575320454.509665,2881.14
1575320454.517487,2890.09
1575320454.5306408,2896.07
1575320454.538093,2898.32
1575320454.547366,2899.68
1575320454.558672,2902.52
1575320454.567171,2906.73
1575320454.575166,2909.6
1575320454.5830631,2909.75
1575320454.596166,2903.77
1575320454.603502,2894.93
1575320454.613029,2882.3
1575320454.6243,2871.88
1575320454.632193,2866.22
1575320454.6407108,2859.96
1575320454.650152,2851.53
1575320454.66097,2839.83
1575320454.6692328,2827.64
1575320454.677471,2810.18
1575320454.689594,2791.8
1575320454.6980789,2776.41
1575320454.70625,2755.95
1575320454.7151601,2733.3
1575320454.726919,2713.29
1575320454.7345989,2686.62
1575320454.743123,2659.58
1575320454.755009,2638.24
1575320454.7646542,2611.58
1575320454.771714,2585.42
1575320454.7810109,2565.48
1575320454.792056,2541.71
1575320454.8001988,2518.52
1575320454.808604,2499.6
1575320454.820745,2475.91
1575320454.82965,2454.21
1575320454.837229,2439.75
1575320454.846035,2425.55
1575320454.857607,2414.12
1575320454.866173,2405.78
1575320454.874167,2395.2
1575320454.88615,2381.64
1575320454.894623,2364.15
1575320454.902539,2348.03
1575320454.910958,2327.88
1575320454.92329,2309.51
1575320454.9324741,2296.16
1575320454.9395862,2280.15
1575320454.9516952,2262.65
1575320454.960188,2247.13
1575320454.968181,2225.71
1575320454.976676,2203.1
1575320454.98864,2186.26
1575320454.997955,2168.81
1575320455.0051992,2156.19
1575320455.017141,2148.32
1575320455.025545,2137.95
1575320455.033565,2124.51
1575320455.042099,2111.95
1575320455.0542169,2095.44
1575320455.062996,2077.78
1575320455.0707269,2062.79
1575320455.083791,2044.13
1575320455.090977,2027.37
1575320455.099304,2016.49
1575320455.1074471,2005.9
1575320455.1196108,1996.48
1575320455.127968,1986.72
1575320455.1361651,1979.72
1575320455.14878,1972.84
1575320455.1568,1966.99
1575320455.165641,1962.41
1575320455.173044,1956.5
1575320455.1853151,1949.38
1575320455.193655,1942.3
1575320455.202422,1933.13
1575320455.214714,1924.62
1575320455.222388,1917.57
1575320455.232587,1907.28
1575320455.2385,1894.44
1575320455.250699,1883.32
1575320455.2590232,1871.0
1575320455.267052,1861.21
1575320455.280223,1854.78
1575320455.287682,1849.24
1575320455.2966511,1845.79
1575320455.304117,1843.32
1575320455.316213,1839.73
1575320455.324786,1835.46
1575320455.332853,1830.84
1575320455.345751,1823.08
1575320455.353293,1814.04
1575320455.362495,1804.45
1575320455.3697312,1796.32
1575320455.3820438,1786.03
1575320455.390178,1775.76
1575320455.398567,1766.99
1575320455.4106529,1755.12
1575320455.418644,1743.52
1575320455.427043,1734.81
1575320455.435018,1725.96
1575320455.448456,1719.81
1575320455.4558342,1716.4
1575320455.46496,1712.16
1575320455.476119,1706.3
1575320455.484237,1699.95
1575320455.4929368,1690.89
1575320455.5005922,1682.32
1575320455.513742,1675.96
1575320455.5212932,1667.62
1575320455.530661,1658.46
1575320455.537722,1650.87
1575320455.5496478,1642.34
1575320455.558282,1634.79
1575320455.566197,1629.57
1575320455.579647,1624.58
1575320455.586705,1620.83
1575320455.595516,1618.18
1575320455.6029382,1618.54
1575320455.6152809,1623.79
1575320455.623766,1633.45
1575320455.632333,1642.81
1575320455.644177,1654.14
1575320455.65236,1663.09
1575320455.660505,1667.21
1575320455.668504,1668.31
1575320455.6815412,1666.95
1575320455.68929,1666.68
1575320455.698217,1667.98
1575320455.709456,1669.67
1575320455.717624,1671.57
1575320455.72657,1675.36
1575320455.73408,1678.39
1575320455.747901,1678.09
1575320455.754561,1673.56
1575320455.764218,1665.24
1575320455.7753642,1657.68
1575320455.783185,1649.44
1575320455.791882,1643.17
1575320455.7998002,1638.52
1575320455.812615,1632.07
1575320455.8202891,1624.66
1575320455.8302631,1616.69
1575320455.8408,1610.55
1575320455.850793,1604.09
1575320455.857238,1599.73
1575320455.865309,1597.87
1575320455.877795,1596.59
1575320455.885775,1595.53
1575320455.8939111,1594.54
1575320455.906282,1591.56
1575320455.9161248,1586.37
1575320455.922627,1582.27
1575320455.9336221,1578.03
1575320455.943249,1574.13
1575320455.951315,1571.42
1575320455.959488,1568.71
1575320455.971759,1566.75
1575320455.980834,1565.07
1575320455.9883032,1562.35
1575320455.997613,1558.97
1575320456.0087621,1555.97
1575320456.01688,1552.07
1575320456.0252821,1548.33
1575320456.037131,1545.92
1575320456.0464928,1544.96
1575320456.053785,1546.86
1575320456.062648,1549.55
1575320456.0740218,1550.13
1575320456.08229,1547.66
1575320456.09073,1542.17
1575320456.102658,1536.67
1575320456.111719,1529.96
1575320456.119222,1525.53
1575320456.127403,1524.63
1575320456.1399,1524.76
1575320456.148258,1523.08
1575320456.1563132,1520.54
1575320456.1681821,1518.66
1575320456.17664,1519.03
1575320456.184601,1520.61
1575320456.193132,1521.95
1575320456.205376,1521.46
1575320456.21408,1520.8
1575320456.2217731,1520.47
1575320456.233709,1519.62
1575320456.242101,1517.38
1575320456.250216,1512.09
1575320456.258695,1506.33
1575320456.2708979,1503.38
1575320456.279604,1502.35
1575320456.287256,1505.37
1575320456.299513,1512.2
1575320456.30772,1520.1
1575320456.315686,1532.93
1575320456.324137,1547.77
1575320456.336403,1559.4
1575320456.344645,1571.04
1575320456.352577,1578.03
1575320456.364749,1580.0
1575320456.373371,1579.03
1575320456.3825479,1576.99
1575320456.389577,1576.78
1575320456.401866,1580.01
1575320456.41027,1586.49
1575320456.4182,1592.14
1575320456.431531,1599.08
1575320456.438777,1606.84
1575320456.448048,1613.15
1575320456.455199,1619.08
1575320456.4672482,1620.67
1575320456.475639,1619.07
1575320456.483791,1615.66
1575320456.49675,1612.25
1575320456.504147,1608.82
1575320456.513124,1602.79
1575320456.5207732,1596.19
1575320456.5326788,1590.98
1575320456.541284,1588.22
1575320456.549267,1586.13
1575320456.562193,1585.04
1575320456.569891,1584.42
1575320456.578491,1584.13
1575320456.586205,1584.59
1575320456.598489,1585.49
1575320456.606843,1586.61
1575320456.615846,1586.69
1575320456.627176,1585.34
1575320456.6351411,1581.51
1575320456.643508,1575.77
1575320456.651607,1570.66
1575320456.6649458,1564.65
1575320456.672235,1559.83
1575320456.681061,1557.41
1575320456.6925418,1556.18
1575320456.700639,1557.64
1575320456.709141,1561.83
1575320456.717081,1570.39
1575320456.730688,1579.17
1575320456.737626,1583.41
1575320456.7463849,1584.63
1575320456.7584991,1582.42
1575320456.7662442,1578.49
1575320456.774864,1576.03
1575320456.7830882,1573.68
1575320456.796022,1569.83
1575320456.803143,1564.37
1575320456.812238,1556.3
1575320456.82364,1551.77
1575320456.832021,1553.02
1575320456.840136,1560.26
1575320456.849082,1570.23
1575320456.860516,1576.66
1575320456.868696,1580.05
1575320456.876884,1580.17
1575320456.889459,1579.64
1575320456.899005,1578.33
1575320456.9056919,1577.3
1575320456.914523,1577.5
1575320456.926259,1578.56
1575320456.934241,1580.35
1575320456.942552,1582.3
1575320456.9547389,1584.1
1575320456.963957,1583.5
1575320456.971346,1580.88
1575320456.981247,1575.77
1575320456.9918342,1570.4
1575320456.999735,1566.38
1575320457.008323,1564.88
1575320457.0203571,1564.47
1575320457.030543,1564.79
1575320457.036523,1564.57
1575320457.0453708,1562.76
1575320457.0573351,1560.24
1575320457.066529,1559.83
1575320457.0736299,1562.81
1575320457.085835,1568.48
1575320457.09405,1572.77
1575320457.102196,1576.8
1575320457.1105301,1580.85
1575320457.12287,1584.61
1575320457.132833,1588.1
1575320457.139176,1588.14
1575320457.1512132,1585.93
1575320457.1596212,1581.35
1575320457.167635,1575.96
1575320457.176141,1572.51
1575320457.188402,1570.56
1575320457.19738,1571.48
1575320457.204726,1573.0
1575320457.216906,1573.16
1575320457.226193,1570.75
1575320457.234598,1566.29
1575320457.241388,1561.52
1575320457.253869,1553.79
1575320457.263869,1544.35
1575320457.270098,1537.63
1575320457.2822988,1533.96
1575320457.290663,1536.72
1575320457.299096,1541.68
1575320457.3070111,1547.29
1575320457.319144,1547.51
1575320457.327569,1542.03
1575320457.3355641,1530.06
1575320457.3486888,1516.92
1575320457.356371,1508.32
1575320457.365972,1501.28
1575320457.372663,1497.53
1575320457.3846872,1495.98
1575320457.3931699,1494.35
1575320457.4011788,1492.02
1575320457.4143732,1489.67
1575320457.4219048,1485.61
1575320457.431054,1480.55
1575320457.4383612,1477.13
1575320457.4502342,1474.03
1575320457.4588642,1471.64
1575320457.466683,1469.86
1575320457.4796748,1469.2
1575320457.4873888,1470.11
1575320457.4960399,1472.17
1575320457.503723,1474.6
1575320457.515713,1478.51
1575320457.5242372,1482.61
1575320457.53231,1485.68
1575320457.545696,1488.59
1575320457.5526989,1491.73
1575320457.561909,1494.43
1575320457.569217,1497.01
1575320457.581882,1499.0
1575320457.5898528,1500.18
1575320457.599396,1500.1
1575320457.610382,1498.33
1575320457.61819,1496.93
1575320457.626733,1497.8
1575320457.634637,1502.59
1575320457.6479518,1507.81
1575320457.6553578,1512.05
1575320457.664466,1511.9
1575320457.675762,1510.16
1575320457.683819,1508.29
1575320457.69245,1507.78
1575320457.700207,1508.25
1575320457.713087,1508.87
1575320457.720837,1509.82
1575320457.731454,1510.54
1575320457.741271,1511.2
1575320457.749512,1512.78
1575320457.757824,1514.94
1575320457.765693,1516.04
1575320457.7781608,1515.23
1575320457.786417,1513.64
1575320457.7944472,1513.14
1575320457.806603,1513.74
1575320457.815559,1515.89
1575320457.823135,1519.31
1575320457.831869,1524.97
1575320457.843752,1528.0
1575320457.851705,1525.19
1575320457.860161,1514.22
1575320457.872257,1498.77
1575320457.881501,1486.88
1575320457.888816,1476.85
1575320457.897859,1473.59
1575320457.9093812,1474.9
1575320457.917802,1479.02
1575320457.925514,1482.85
1575320457.9378529,1482.6
1575320457.946856,1478.55
1575320457.9543161,1471.35
1575320457.9634712,1466.57
1575320457.9748402,1467.6
1575320457.9828491,1475.69
1575320457.9913,1486.83
1575320458.003276,1494.14
1575320458.0122921,1498.48
1575320458.019805,1497.47
1575320458.028194,1494.29
1575320458.04048,1490.79
1575320458.0483599,1490.87
1575320458.056837,1493.82
1575320458.068869,1500.68
1575320458.0773172,1509.29
1575320458.08531,1516.95
1575320458.0975392,1527.1
1575320458.105803,1534.65
1575320458.114753,1535.34
1575320458.1222951,1529.62
1575320458.1343281,1521.42
1575320458.142754,1516.88
1575320458.150791,1514.1
1575320458.159051,1512.71
1575320458.171388,1510.79
1575320458.1802251,1508.04
1575320458.1877902,1502.79
1575320458.1998332,1495.95
1575320458.208401,1490.69
1575320458.216257,1485.67
1575320458.224569,1482.54
1575320458.2368808,1481.51
1575320458.245692,1481.65
1575320458.253401,1483.47
1575320458.26634,1486.42
1575320458.2737112,1491.68
1575320458.2819111,1497.56
1575320458.290078,1500.62
1575320458.3022091,1499.45
1575320458.310596,1491.73
1575320458.3187158,1482.12
1575320458.332333,1468.98
1575320458.3393931,1457.38
1575320458.347957,1450.98
1575320458.3558478,1447.78
1575320458.3679318,1450.43
1575320458.3761659,1455.88
1575320458.3843389,1464.21
1575320458.397538,1470.88
1575320458.404953,1473.4
1575320458.4143481,1473.18
1575320458.4212868,1472.94
1575320458.43331,1474.83
1575320458.441961,1478.46
1575320458.449708,1484.87
1575320458.463338,1491.29
1575320458.470269,1494.86
1575320458.479511,1496.08
1575320458.486562,1493.03
1575320458.498899,1488.22
1575320458.507301,1479.32
1575320458.5157099,1467.69
1575320458.527781,1458.4
1575320458.53579,1449.73
1575320458.544061,1446.34
1575320458.552351,1447.77
1575320458.5651798,1454.09
1575320458.572841,1463.52
1575320458.5818481,1471.11
1575320458.5934122,1478.52
1575320458.601304,1482.33
1575320458.6097028,1483.15
1575320458.617645,1482.84
1575320458.631216,1482.72
1575320458.638355,1482.62
1575320458.647694,1481.15
1575320458.6589398,1476.92
1575320458.666871,1471.36
1575320458.675488,1466.86
1575320458.68324,1461.01
1575320458.6977239,1455.04
1575320458.703725,1450.73
1575320458.712735,1446.18
1575320458.7245991,1443.55
1575320458.732362,1443.95
1575320458.740791,1447.83
1575320458.748755,1455.44
1575320458.7612522,1464.39
1575320458.7693021,1478.71
1575320458.7775512,1494.06
1575320458.789818,1505.07
1575320458.798439,1515.28
1575320458.8061922,1522.35
1575320458.815695,1526.94
1575320458.8267179,1532.2
1575320458.834731,1535.92
1575320458.8431602,1536.41
1575320458.8553019,1533.42
1575320458.864545,1526.71
1575320458.8718789,1518.47
1575320458.881441,1512.53
1575320458.89242,1506.49
1575320458.900278,1501.33
1575320458.9088929,1497.65
1575320458.920803,1493.76
1575320458.9303522,1491.39
1575320458.937186,1490.96
1575320458.946742,1491.32
1575320458.95796,1491.36
1575320458.9658391,1490.48
1575320458.9743218,1487.85
1575320458.986368,1484.58
1575320458.995299,1482.17
1575320459.0028522,1478.92
1575320459.011227,1474.29
1575320459.023447,1469.85
1575320459.031714,1464.67
1575320459.039711,1460.12
1575320459.051976,1456.86
1575320459.060367,1454.07
1575320459.0683541,1453.09
1575320459.076909,1453.47
1575320459.088892,1454.67
1575320459.098293,1455.53
1575320459.105254,1455.04
1575320459.1174028,1453.73
1575320459.125728,1451.82
1575320459.133887,1450.46
1575320459.1422331,1450.13
1575320459.154433,1450.53
1575320459.163875,1452.25
1575320459.170871,1455.21
1575320459.1842518,1460.54
1575320459.191295,1466.84
1575320459.199299,1471.66
1575320459.207767,1476.21
1575320459.2200162,1478.6
1575320459.228288,1479.12
1575320459.236216,1478.74
1575320459.2487738,1477.01
1575320459.25695,1475.52
1575320459.266455,1474.61
1575320459.273223,1474.32
1575320459.285249,1473.87
1575320459.293679,1472.83
1575320459.3017862,1472.96
1575320459.31516,1475.44
1575320459.3222249,1483.12
1575320459.332226,1495.27
1575320459.3388538,1508.38
1575320459.3508239,1517.05
1575320459.359253,1523.04
1575320459.3672352,1524.53
1575320459.381226,1525.66
1575320459.3877041,1530.57
1575320459.3978188,1539.03
1575320459.40416,1544.76
1575320459.416807,1547.29
1575320459.424901,1545.83
1575320459.433393,1544.49
1575320459.446261,1545.34
1575320459.453383,1548.45
1575320459.461542,1551.07
1575320459.4698792,1553.05
1575320459.482403,1552.37
1575320459.4904902,1550.31
1575320459.500777,1547.0
1575320459.5067189,1543.45
1575320459.518877,1540.16
1575320459.5273228,1535.21
1575320459.535323,1528.94
1575320459.5486631,1523.4
1575320459.5557709,1516.74
1575320459.564689,1510.76
1575320459.576441,1505.28
1575320459.584325,1501.83
1575320459.592715,1499.23
1575320459.600721,1497.23
1575320459.614093,1495.36
1575320459.621438,1493.98
1575320459.630871,1494.29
1575320459.6378722,1496.14
1575320459.650024,1500.11
1575320459.658483,1505.85
1575320459.666443,1510.87
1575320459.6801322,1515.58
1575320459.6868942,1517.97
1575320459.6964312,1518.59
1575320459.703579,1517.85
1575320459.715341,1515.49
1575320459.7239091,1512.81
1575320459.732327,1508.72
1575320459.7446022,1503.65
1575320459.752477,1499.07
1575320459.760703,1494.34
1575320459.768641,1491.95
1575320459.782044,1492.6
1575320459.789442,1497.87
1575320459.798762,1507.03
1575320459.8100128,1515.9
1575320459.817801,1520.22
1575320459.826211,1521.97
1575320459.834212,1521.85
1575320459.8483992,1521.66
1575320459.8549209,1522.7
1575320459.864528,1524.93
1575320459.8755488,1526.04
1575320459.8833349,1524.92
1575320459.891995,1520.89
1575320459.900644,1516.76
1575320459.913055,1511.62
1575320459.920428,1508.09
1575320459.9297469,1506.3
1575320459.9409401,1504.22
1575320459.9501178,1501.18
1575320459.957419,1498.06
1575320459.965722,1493.64
1575320459.9777322,1489.43
1575320459.985717,1487.35
1575320459.994099,1487.72
1575320460.0062878,1492.65
1575320460.0152571,1499.55
1575320460.022796,1509.81
1575320460.03148,1519.07
1575320460.043328,1525.98
1575320460.051258,1529.7
1575320460.059756,1531.59
1575320460.071736,1530.78
1575320460.0810492,1529.27
1575320460.08851,1527.98
1575320460.099332,1527.27
1575320460.10898,1525.93
1575320460.117019,1521.21
1575320460.12548,1512.71
1575320460.137418,1504.41
1575320460.147263,1494.79
1575320460.153852,1487.2
1575320460.162601,1481.85
1575320460.1744158,1475.02
1575320460.182636,1469.39
1575320460.190829,1467.91
1575320460.202983,1470.44
1575320460.2113202,1475.09
1575320460.219262,1478.56
1575320460.2276502,1482.54
1575320460.240292,1486.72
1575320460.248533,1490.79
1575320460.2561111,1496.7
1575320460.268385,1501.85
1575320460.276939,1504.9
1575320460.2848482,1506.56
1575320460.293327,1508.3
1575320460.305225,1509.14
1575320460.316084,1508.82
1575320460.321604,1507.2
1575320460.333995,1505.81
1575320460.3423429,1505.96
1575320460.350275,1507.2
1575320460.3589702,1508.04
1575320460.37092,1507.53
1575320460.38095,1505.29
1575320460.387219,1501.27
1575320460.3993862,1497.29
1575320460.4079092,1493.2
1575320460.415853,1490.77
1575320460.424312,1490.15
1575320460.436466,1491.73
1575320460.4447181,1495.77
1575320460.452925,1499.27
1575320460.46544,1501.09
1575320460.4734879,1497.92
1575320460.482281,1492.78
1575320460.48982,1485.47
1575320460.5019321,1481.67
1575320460.510459,1484.28
1575320460.518372,1489.97
1575320460.5312471,1497.48
1575320460.538892,1501.01
1575320460.548049,1500.22
1575320460.555468,1496.18
1575320460.567331,1490.81
1575320460.57569,1486.46
1575320460.583767,1480.69
1575320460.598489,1474.01
1575320460.604356,1468.42
1575320460.613455,1463.06
1575320460.620784,1462.04
1575320460.632857,1464.4
1575320460.6415098,1468.8
1575320460.6499588,1471.8
1575320460.662827,1472.35
1575320460.669935,1471.89
1575320460.6801379,1471.46
1575320460.686342,1471.02
1575320460.699043,1470.12
1575320460.70686,1468.79
1575320460.715254,1467.59
1575320460.7274292,1466.23
1575320460.735373,1464.69
1575320460.7443871,1462.82
1575320460.7518861,1461.44
1575320460.764585,1459.45
1575320460.772404,1457.4
1575320460.781687,1456.92
1575320460.792784,1458.62
1575320460.8008268,1461.53
1575320460.809335,1463.27
1575320460.817258,1463.67
1575320460.8306491,1462.91
1575320460.837906,1461.58
1575320460.847084,1458.37
1575320460.858649,1453.72
1575320460.866488,1449.87
1575320460.874836,1447.96
1575320460.882803,1452.88
1575320460.899456,1462.49
1575320460.903326,1478.79
1575320460.911704,1494.6
1575320460.923771,1504.23
1575320460.932686,1512.81
1575320460.940625,1520.15
1575320460.949645,1526.56
1575320460.9608262,1533.77
1575320460.968836,1538.64
1575320460.977269,1540.98
1575320460.989385,1542.07
1575320460.998003,1543.21
1575320461.0059352,1544.62
1575320461.014511,1545.96
1575320461.026295,1546.97
1575320461.0343301,1547.27
1575320461.0426922,1547.79
1575320461.054841,1549.93
1575320461.064668,1552.47
1575320461.071396,1552.94
1575320461.0802188,1551.14
1575320461.0920079,1548.05
1575320461.099908,1545.6
1575320461.1085,1543.51
1575320461.120411,1543.63
1575320461.129576,1545.59
1575320461.1367092,1550.91
1575320461.14509,1558.77
1575320461.157432,1565.8
1575320461.165647,1573.67
1575320461.1740422,1578.03
1575320461.1858969,1577.75
1575320461.194429,1572.34
1575320461.202286,1563.31
1575320461.2108312,1553.26
1575320461.222794,1546.75
1575320461.2318,1541.76
1575320461.239397,1539.03
1575320461.251381,1537.81
1575320461.2597,1538.28
1575320461.267852,1541.96
1575320461.276272,1546.64
1575320461.288437,1552.85
1575320461.297389,1557.9
1575320461.304729,1560.04
1575320461.3169541,1560.22
1575320461.325309,1558.89
1575320461.333364,1558.02
1575320461.3418722,1558.52
1575320461.354056,1561.36
1575320461.3641868,1564.51
1575320461.370378,1567.58
1575320461.382494,1567.63
1575320461.3910131,1565.54
1575320461.399498,1561.73
1575320461.407318,1557.99
1575320461.4195352,1556.25
1575320461.427837,1555.91
1575320461.435789,1555.55
1575320461.4484632,1552.36
1575320461.456427,1546.99
1575320461.4656482,1539.17
1575320461.473003,1533.72
1575320461.484878,1532.72
1575320461.49337,1535.59
1575320461.501359,1541.82
1575320461.5149171,1547.87
1575320461.522012,1554.92
1575320461.5308769,1560.46
1575320461.538334,1563.26
1575320461.550436,1564.24
1575320461.559129,1563.29
1575320461.566886,1562.2
1575320461.579956,1562.19
1575320461.5875351,1565.15
1575320461.596649,1570.11
1575320461.60395,1577.34
1575320461.61594,1582.28
1575320461.624384,1583.53
1575320461.632467,1583.48
1575320461.644901,1582.67
1575320461.65301,1581.14
1575320461.66116,1576.86
1575320461.669438,1571.47
1575320461.681955,1566.96
1575320461.6901371,1563.48
1575320461.6991591,1557.18
1575320461.710349,1548.11
1575320461.7183309,1539.29
1575320461.726917,1527.69
1575320461.734797,1518.31
1575320461.749279,1513.77
1575320461.7554078,1511.37
1575320461.764693,1510.46
1575320461.7759519,1509.69
1575320461.784001,1509.11
1575320461.792504,1511.23
1575320461.80037,1516.02
1575320461.813382,1523.33
1575320461.8208718,1522.53
1575320461.830158,1507.77
1575320461.841388,1465.33
1575320461.8494458,1396.33
1575320461.857963,1325.54
1575320461.866464,1221.25
1575320461.878274,1101.97
1575320461.886522,997.97
1575320461.89587,861.49
1575320461.902865,750.35
1575320461.911008,640.28
1575320461.919253,534.79
1575320461.927485,441.01
1575320461.935456,363.38
1575320461.943844,285.24
1575320461.9518762,235.02
1575320461.960358,193.65
1575320461.9682481,159.74
1575320461.9767182,132.61
1575320461.9846652,111.73
1575320461.993052,92.54
1575320462.001236,83.67
1575320462.0052621,72.48
1575320462.0146508,63.98
1575320462.021735,52.75
1575320462.0315762,43.48
1575320462.038049,37.59
1575320462.042202,30.98
1575320462.050252,25.52
1575320462.058817,22.07
1575320462.066992,18.19
1575320462.0705862,14.98
1575320462.0808299,13.38
1575320462.087198,13.88
1575320462.09637,18.07
1575320462.103601,23.26
1575320462.107758,32.75
1575320462.115668,42.12
1575320462.124212,57.69
1575320462.133352,75.48
1575320462.13625,88.8
1575320462.1445382,105.71
1575320462.156949,121.3
1575320462.165567,137.02
1575320462.173204,153.94
1575320462.181855,177.36
1575320462.189693,197.12
1575320462.198835,216.33
1575320462.205984,234.4
1575320462.21485,253.41
1575320462.222464,277.48
1575320462.232194,320.8
1575320462.238724,366.13
1575320462.2476218,416.13
1575320462.255251,464.37
1575320462.264251,506.95
1575320462.2715409,541.99
1575320462.281128,576.27
1575320462.288044,597.75
1575320462.2973619,617.07
1575320462.304246,636.72
1575320462.313121,658.7
1575320462.320517,682.09
1575320462.330165,710.9
1575320462.336874,731.83
1575320462.3459032,750.25
1575320462.3534641,766.91
1575320462.361675,782.37
1575320462.369697,797.66
1575320462.3779619,813.15
1575320462.3860722,831.56
1575320462.3946471,845.11
1575320462.402616,858.34
1575320462.411006,872.35
1575320462.42305,887.23
1575320462.431919,901.83
1575320462.439617,917.09
1575320462.4487512,925.69
1575320462.4558249,932.14
1575320462.465204,938.66
1575320462.47229,946.81
1575320462.481556,957.45
1575320462.4887319,972.5
1575320462.498214,982.94
1575320462.505047,991.08
1575320462.514807,997.93
1575320462.521257,1004.43
1575320462.531751,1014.62
1575320462.541965,1027.84
1575320462.549876,1039.09
1575320462.558366,1051.66
1575320462.5703528,1062.15
1575320462.5800152,1070.08
1575320462.586973,1079.94
1575320462.595307,1089.25
1575320462.6073432,1095.75
1575320462.6155121,1102.62
1575320462.623945,1107.51
1575320462.635904,1109.86
1575320462.644238,1112.58
1575320462.6522849,1117.07
1575320462.6608481,1122.65
1575320462.672912,1132.57
1575320462.681855,1144.28
1575320462.689306,1152.99
1575320462.701486,1162.04
1575320462.7097442,1170.15
1575320462.717813,1178.1
1575320462.7263281,1191.99
1575320462.7384582,1210.56
1575320462.747782,1232.52
1575320462.754975,1250.51
1575320462.766911,1270.91
1575320462.775629,1286.81
1575320462.783411,1295.03
1575320462.791861,1300.37
1575320462.8039849,1302.62
1575320462.813011,1304.66
1575320462.820284,1309.16
1575320462.8327491,1315.29
1575320462.840801,1320.38
1575320462.849011,1326.02
1575320462.8573499,1329.55
1575320462.869503,1330.67
1575320462.87786,1332.15
1575320462.885908,1336.26
1575320462.8991518,1340.3
1575320462.906349,1343.57
1575320462.915085,1343.67
1575320462.922955,1342.19
1575320462.935016,1340.22
1575320462.943383,1338.01
1575320462.951272,1336.27
1575320462.96484,1334.85
1575320462.971991,1334.79
1575320462.980841,1335.36
1575320462.988479,1335.91
1575320463.000501,1337.21
1575320463.0090592,1338.52
1575320463.016855,1338.67
1575320463.0305998,1339.31
1575320463.0375192,1342.35
1575320463.046894,1346.58
1575320463.053921,1352.64
1575320463.06599,1358.1
1575320463.074455,1360.81
1575320463.0830588,1362.24
1575320463.095834,1363.29
1575320463.102894,1364.62
1575320463.1111438,1367.23
1575320463.119401,1370.56
1575320463.131969,1373.26
1575320463.139992,1375.51
1575320463.1494029,1374.73
1575320463.160681,1372.8
1575320463.168351,1372.58
1575320463.177017,1376.63
1575320463.18485,1381.29
1575320463.197738,1385.95
1575320463.205578,1387.82
1575320463.214423,1387.89
1575320463.2260108,1388.41
1575320463.234006,1390.47
1575320463.242568,1393.89
1575320463.2503738,1397.21
1575320463.264071,1402.09
1575320463.271046,1407.55
1575320463.279938,1411.58
1575320463.2914581,1415.39
1575320463.2994812,1417.84
1575320463.307827,1419.17
1575320463.316726,1421.94
1575320463.328267,1426.76
1575320463.336298,1430.91
1575320463.344617,1434.61
1575320463.3569422,1436.9
1575320463.365493,1438.26
1575320463.373506,1438.51
1575320463.382794,1435.52
1575320463.393941,1428.96
1575320463.401859,1414.08
1575320463.410505,1392.68
1575320463.422293,1371.34
1575320463.431417,1339.93
1575320463.439113,1305.39
1575320463.4483771,1271.96
1575320463.459413,1250.69
1575320463.467382,1237.21
1575320463.4758558,1240.3
1575320463.488078,1253.45
1575320463.49705,1278.39
1575320463.504456,1304.2
1575320463.513456,1320.53
1575320463.525019,1333.19
1575320463.532921,1340.05
1575320463.541356,1345.1
1575320463.5534642,1354.88
1575320463.562794,1370.03
1575320463.5700412,1384.77
1575320463.5782971,1403.33
1575320463.5905159,1419.06
1575320463.5988321,1429.66
1575320463.607002,1441.03
1575320463.6189618,1451.21
1575320463.627501,1459.99
1575320463.635371,1471.8
1575320463.644046,1484.0
1575320463.655926,1492.11
1575320463.665102,1497.0
1575320463.672308,1494.32
1575320463.684439,1488.1
1575320463.692842,1487.57
1575320463.7008781,1498.14
1575320463.7092092,1517.93
1575320463.721497,1534.91
1575320463.730019,1551.65
1575320463.737979,1560.59
1575320463.74997,1562.52
1575320463.75872,1559.12
1575320463.7664168,1552.27
1575320463.777727,1547.28
1575320463.7872488,1544.53
1575320463.796457,1546.64
1575320463.803277,1551.19
1575320463.816257,1558.78
1575320463.8238468,1566.73
1575320463.832648,1572.46
1575320463.840307,1578.12
1575320463.8523772,1581.42
1575320463.8607209,1582.82
1575320463.86891,1584.73
1575320463.8829691,1588.18
1575320463.889455,1591.71
1575320463.8984919,1595.91
1575320463.905887,1598.9
1575320463.917998,1599.76
1575320463.926375,1598.95
1575320463.934359,1597.18
1575320463.948225,1594.38
1575320463.955128,1590.49
1575320463.9648619,1584.16
1575320463.971436,1578.29
1575320463.983726,1575.47
1575320463.992037,1575.65
1575320463.999896,1579.61
1575320464.0133572,1584.83
1575320464.0203252,1591.83
1575320464.030522,1595.79
1575320464.0369952,1595.19
1575320464.049651,1590.41
1575320464.057485,1583.55
1575320464.065502,1578.3
1575320464.078518,1574.54
1575320464.085919,1581.0
1575320464.0942369,1600.86
1575320464.102325,1650.99
1575320464.115534,1728.89
1575320464.12302,1805.34
1575320464.131924,1908.9
1575320464.14357,2012.4
1575320464.151511,2110.91
1575320464.159795,2185.53
1575320464.167823,2271.78
1575320464.181726,2347.02
1575320464.188565,2397.09
1575320464.197397,2446.49
1575320464.209307,2482.2
1575320464.2170439,2502.7
1575320464.225543,2521.05
1575320464.233344,2532.21
1575320464.24712,2535.28
1575320464.253914,2530.88
1575320464.262947,2517.92
1575320464.274339,2502.16
1575320464.282515,2477.43
1575320464.29071,2452.13
1575320464.2992399,2435.65
1575320464.311411,2425.24
1575320464.319532,2429.25
1575320464.328083,2442.31
1575320464.339939,2465.23
1575320464.348948,2486.53
1575320464.356535,2497.55
1575320464.365107,2502.41
1575320464.3771362,2500.37
1575320464.384952,2495.48
1575320464.393488,2490.08
1575320464.405486,2481.59
1575320464.414519,2470.79
1575320464.4218922,2459.74
1575320464.4308212,2441.55
1575320464.4426172,2418.64
1575320464.450592,2398.65
1575320464.459051,2374.89
1575320464.471422,2356.05
1575320464.480632,2345.16
1575320464.487594,2339.06
1575320464.497439,2344.25
1575320464.508029,2356.67
1575320464.515981,2380.56
1575320464.524436,2409.55
1575320464.536948,2431.09
1575320464.544814,2449.7
1575320464.552932,2456.24
1575320464.561161,2453.59
1575320464.573308,2444.29
1575320464.584394,2432.54
1575320464.5897331,2421.51
1575320464.59845,2405.72
1575320464.610623,2388.16
1575320464.61853,2371.31
1575320464.627008,2359.36
1575320464.638915,2344.55
1575320464.6482801,2328.49
1575320464.655481,2315.47
1575320464.664502,2300.34
1575320464.675915,2287.21
1575320464.6839309,2277.77
1575320464.693237,2266.08
1575320464.704486,2253.8
1575320464.713324,2243.32
1575320464.721092,2228.49
1575320464.729988,2211.87
1575320464.741559,2198.14
1575320464.750026,2182.34
1575320464.757916,2168.85
1575320464.770089,2159.88
1575320464.778444,2150.28
1575320464.786405,2138.53
1575320464.796084,2124.41
1575320464.807102,2098.95
1575320464.8156958,2068.43
1575320464.8232908,2045.73
1575320464.8354409,2025.67
1575320464.843853,2016.76
1575320464.8519092,2014.46
1575320464.8605812,2012.63
1575320464.872591,2005.54
1575320464.881871,1991.3
1575320464.888989,1976.18
1575320464.90094,1956.85
1575320464.909296,1941.03
1575320464.917391,1932.9
1575320464.925905,1928.46
1575320464.93813,1927.89
1575320464.946944,1928.39
1575320464.954475,1927.75
1575320464.966541,1923.24
1575320464.975054,1915.57
1575320464.9834151,1901.4
1575320464.991461,1885.13
1575320465.003585,1873.98
1575320465.011936,1865.17
1575320465.019806,1863.36
1575320465.032566,1866.12
1575320465.040663,1871.24
1575320465.049356,1872.92
1575320465.057034,1868.59
1575320465.06889,1856.02
1575320465.077555,1838.58
1575320465.085367,1819.91
1575320465.098721,1805.78
1575320465.1060832,1791.39
1575320465.115005,1782.01
1575320465.122478,1778.44
1575320465.134529,1778.9
1575320465.1429,1782.52
1575320465.151071,1785.39
1575320465.1646342,1786.15
1575320465.171531,1780.62
1575320465.180725,1770.57
1575320465.18804,1751.44
1575320465.200014,1727.44
1575320465.208548,1708.76
1575320465.2167969,1690.7
1575320465.229012,1680.35
1575320465.23707,1676.21
1575320465.245804,1673.54
1575320465.25348,1671.29
1575320465.26605,1669.24
1575320465.274079,1665.94
1575320465.282779,1660.9
1575320465.2967849,1655.66
1575320465.302758,1647.98
1575320465.310965,1640.18
1575320465.3188071,1633.16
1575320465.3315399,1628.86
1575320465.339369,1625.39
1575320465.348694,1622.34
1575320465.3600268,1619.96
1575320465.3679879,1618.78
1575320465.376344,1620.07
1575320465.3843489,1622.57
1575320465.398379,1626.07
1575320465.405026,1628.46
1575320465.4139142,1628.99
1575320465.425799,1627.84
1575320465.433565,1625.38
1575320465.4420722,1623.08
1575320465.450575,1620.08
1575320465.463352,1616.21
1575320465.4704452,1611.37
1575320465.480244,1603.62
1575320465.491103,1596.45
1575320465.499726,1592.09
1575320465.507516,1587.13
1575320465.51598,1580.83
1575320465.5279648,1574.22
1575320465.5360289,1564.41
1575320465.544508,1555.41
1575320465.556542,1550.7
1575320465.565593,1550.96
1575320465.5730612,1555.69
1575320465.581932,1563.34
1575320465.593583,1569.91
1575320465.601495,1575.71
1575320465.609945,1575.33
1575320465.622017,1570.08
1575320465.631189,1559.16
1575320465.6385732,1546.36
1575320465.64757,1536.79
1575320465.6592379,1528.26
1575320465.6671538,1525.96
1575320465.6753302,1528.42
1575320465.687596,1534.3
1575320465.697511,1539.22
1575320465.703912,1540.15
1575320465.712972,1537.7
1575320465.7244601,1533.16
1575320465.7325609,1530.18
1575320465.741076,1528.79
1575320465.7529879,1531.29
1575320465.7612941,1536.69
1575320465.769564,1546.21
1575320465.777924,1556.27
1575320465.7902021,1564.14
1575320465.79919,1567.58
1575320465.806319,1568.26
1575320465.8185558,1566.07
1575320465.826924,1563.36
1575320465.834927,1560.27
1575320465.843646,1559.21
1575320465.855438,1559.67
1575320465.8646579,1560.73
1575320465.872065,1560.49
1575320465.8841002,1558.5
1575320465.892684,1554.59
1575320465.900504,1550.9
1575320465.9090738,1548.56
1575320465.9211578,1545.73
1575320465.9295459,1542.42
1575320465.9377851,1540.73
1575320465.949549,1542.65
1575320465.958113,1548.37
1575320465.966698,1553.25
1575320465.974417,1556.59
1575320465.98664,1556.15
1575320465.9950132,1553.69
1575320466.002908,1549.19
1575320466.01552,1545.27
1575320466.023721,1544.62
1575320466.032213,1548.05
1575320466.0400178,1556.57
1575320466.051998,1566.28
1575320466.060692,1571.72
1575320466.068437,1573.21
1575320466.0817091,1570.76
1575320466.089112,1569.15
1575320466.0977669,1570.23
1575320466.105503,1573.68
1575320466.117512,1576.4
1575320466.125986,1579.1
1575320466.13392,1580.42
1575320466.146998,1580.46
1575320466.1545951,1579.76
1575320466.163608,1577.8
1575320466.171079,1576.29
1575320466.1830568,1576.5
1575320466.191634,1578.84
1575320466.200077,1580.46
1575320466.212608,1578.35
1575320466.220018,1570.25
1575320466.228317,1561.34
1575320466.2365499,1549.6
1575320466.249132,1540.8
1575320466.257107,1537.01
1575320466.266486,1537.44
1575320466.2775922,1540.87
1575320466.2854478,1545.08
1575320466.298702,1547.53
1575320466.301858,1548.48
1575320466.31518,1547.32
1575320466.322392,1545.49
1575320466.33242,1543.41
1575320466.3429701,1542.7
1575320466.351149,1542.7
1575320466.3592918,1542.26
1575320466.367451,1539.51
1575320466.381772,1534.9
1575320466.387958,1527.12
1575320466.3983822,1518.98
1575320466.4086862,1513.63
1575320466.416599,1509.88
1575320466.425097,1510.74
1575320466.433443,1514.45
1575320466.445559,1520.07
1575320466.453485,1522.92
1575320466.462635,1522.34
1575320466.4743328,1518.55
1575320466.4828858,1514.27
1575320466.490561,1511.95
1575320466.4988549,1511.95
1575320466.510986,1514.57
1575320466.519027,1520.25
1575320466.527612,1526.72
1575320466.5394602,1535.02
1575320466.5484622,1540.76
1575320466.5559711,1541.85
1575320466.565186,1538.9
1575320466.576501,1533.41
1575320466.584524,1528.76
1575320466.592858,1523.96
1575320466.605042,1521.26
1575320466.614578,1521.33
1575320466.621623,1523.18
1575320466.6311622,1525.02
1575320466.642153,1524.99
1575320466.650271,1521.58
1575320466.658575,1515.71
1575320466.670573,1512.11
1575320466.679942,1511.49
1575320466.687087,1515.32
1575320466.698109,1520.12
1575320466.707615,1525.96
1575320466.715681,1530.68
1575320466.7238579,1534.49
1575320466.736202,1536.81
1575320466.744546,1537.56
1575320466.7525718,1536.27
1575320466.7610571,1534.97
1575320466.7731452,1534.28
1575320466.7818182,1534.15
1575320466.7895858,1533.56
1575320466.801546,1530.81
1575320466.8099551,1525.99
1575320466.8179781,1521.46
1575320466.8264709,1517.43
1575320466.838536,1516.12
1575320466.8481479,1516.59
1575320466.854988,1518.26
1575320466.867122,1519.89
1575320466.87573,1520.53
1575320466.8838751,1520.61
1575320466.8919702,1520.76
1575320466.904205,1521.67
1575320466.914212,1524.15
1575320466.920459,1527.92
1575320466.932665,1531.36
1575320466.941163,1534.25
1575320466.9497862,1533.99
1575320466.9576051,1532.03
1575320466.969533,1531.27
1575320466.978007,1533.75
1575320466.986047,1540.65
1575320466.998788,1548.0
1575320467.00663,1556.36
1575320467.015521,1559.84
1575320467.022896,1557.96
1575320467.0350358,1552.13
1575320467.043485,1546.58
1575320467.05149,1544.54
1575320467.065147,1544.24
1575320467.072033,1544.25
1575320467.081769,1543.49
1575320467.0884402,1541.67
1575320467.100566,1539.41
1575320467.10897,1537.79
1575320467.1170719,1536.35
1575320467.130455,1535.33
1575320467.137544,1534.33
1575320467.146299,1531.53
1575320467.153986,1525.62
1575320467.1663291,1520.54
1575320467.17438,1516.84
1575320467.1830752,1516.06
1575320467.195613,1515.64
1575320467.2030778,1514.51
1575320467.211313,1511.79
1575320467.219452,1507.76
1575320467.232505,1504.41
1575320467.2399528,1501.35
1575320467.249353,1501.34
1575320467.26069,1503.15
1575320467.26853,1505.63
1575320467.276907,1507.64
1575320467.2849548,1508.64
1575320467.2990642,1509.45
1575320467.305425,1509.73
1575320467.3148549,1509.36
1575320467.326079,1508.67
1575320467.3341389,1509.3
1575320467.342442,1510.97
1575320467.350524,1513.4
1575320467.3638551,1514.81
1575320467.370997,1514.92
1575320467.380821,1514.64
1575320467.391433,1514.76
1575320467.399694,1515.56
1575320467.4079082,1516.94
1575320467.416161,1518.66
1575320467.4283252,1521.01
1575320467.436604,1523.48
1575320467.4448,1526.84
1575320467.4570181,1529.91
1575320467.4657438,1532.35
1575320467.473411,1534.41
1575320467.482646,1534.61
1575320467.495772,1533.52
1575320467.5024981,1532.51
1575320467.5105221,1534.18
1575320467.52258,1536.8
1575320467.5318248,1539.56
1575320467.539003,1539.21
1575320467.548643,1537.62
1575320467.559446,1537.75
1575320467.5675619,1541.52
1575320467.5759768,1545.61
1575320467.588042,1550.22
1575320467.5975401,1553.69
1575320467.604546,1556.1
1575320467.613926,1559.31
1575320467.624974,1562.23
1575320467.6331022,1563.75
1575320467.641365,1563.27
1575320467.6535628,1559.4
1575320467.661877,1553.06
1575320467.669964,1548.12
1575320467.6783528,1545.59
1575320467.690527,1548.29
1575320467.699422,1552.66
1575320467.706945,1557.76
1575320467.71917,1560.29
1575320467.7276852,1560.36
1575320467.7355561,1558.76
1575320467.744112,1557.01
1575320467.756242,1556.61
1575320467.76544,1556.87
1575320467.77262,1556.76
1575320467.7846122,1555.86
1575320467.792938,1553.6
1575320467.801016,1549.88
1575320467.809323,1545.23
1575320467.821734,1537.21
1575320467.831601,1528.11
1575320467.83795,1520.97
1575320467.850338,1513.21
1575320467.858461,1506.38
1575320467.866542,1501.56
1575320467.875097,1497.43
1575320467.8870552,1496.21
1575320467.897155,1498.74
1575320467.903625,1503.38
1575320467.9165618,1512.24
1575320467.924154,1523.08
1575320467.93285,1531.57
1575320467.940568,1540.68
1575320467.952588,1547.1
1575320467.9611,1549.79
1575320467.96903,1549.48
1575320467.982471,1546.04
1575320467.989696,1542.38
1575320467.998623,1537.59
1575320468.006187,1532.04
1575320468.018118,1526.23
1575320468.026538,1518.61
1575320468.034524,1512.46
1575320468.047953,1509.87
1575320468.0551639,1509.67
1575320468.064159,1511.38
1575320468.07166,1513.13
1575320468.083593,1515.22
1575320468.092166,1517.53
1575320468.100621,1519.8
1575320468.1141372,1522.01
1575320468.120681,1522.28
1575320468.129104,1521.24
1575320468.136949,1520.78
1575320468.149312,1521.58
1575320468.157696,1522.98
1575320468.167288,1524.08
1575320468.17807,1525.39
1575320468.186045,1525.72
1575320468.194491,1524.81
1575320468.20243,1522.01
1575320468.215586,1519.36
1575320468.22318,1518.41
1575320468.23294,1517.42
1575320468.243747,1515.99
1575320468.25158,1514.54
1575320468.259918,1513.53
1575320468.2679832,1514.08
1575320468.2826009,1515.11
1575320468.288481,1515.19
1575320468.297657,1512.34
1575320468.308861,1508.92
1575320468.317163,1505.37
1575320468.3254678,1504.49
1575320468.333608,1505.94
1575320468.346525,1510.08
1575320468.354037,1515.01
1575320468.3638852,1518.65
1575320468.3747652,1520.22
1575320468.383476,1519.68
1575320468.391134,1516.43
1575320468.3998022,1513.0
1575320468.411635,1509.92
1575320468.419604,1508.09
1575320468.427953,1507.53
1575320468.440089,1507.44
1575320468.44946,1506.82
1575320468.4566941,1504.56
1575320468.465942,1499.3
1575320468.477159,1493.69
1575320468.485183,1489.95
1575320468.493608,1486.78
1575320468.501486,1485.09
1575320468.515146,1484.03
1575320468.522112,1482.4
1575320468.5310001,1480.59
1575320468.542856,1479.41
1575320468.5511491,1477.3
1575320468.55916,1473.65
1575320468.567005,1469.68
1575320468.579631,1464.91
1575320468.58755,1464.2
1575320468.596205,1470.93
1575320468.6083672,1480.66
1575320468.616831,1494.72
1575320468.624655,1506.59
1575320468.635297,1512.18
1575320468.644937,1514.85
1575320468.6532328,1515.37
1575320468.6614468,1516.02
1575320468.673762,1517.2
1575320468.682454,1518.65
1575320468.690002,1520.42
1575320468.698753,1522.82
1575320468.710685,1524.95
1575320468.7186701,1526.13
1575320468.727222,1526.2
1575320468.739198,1523.75
1575320468.748512,1519.65
1575320468.755723,1511.99
1575320468.7652118,1504.38
1575320468.776257,1500.72
1575320468.784176,1500.76
1575320468.7926972,1504.57
1575320468.8047519,1508.57
1575320468.8142169,1513.96
1575320468.821249,1519.8
1575320468.829535,1526.08
1575320468.841554,1530.36
1575320468.8500302,1533.61
1575320468.857934,1534.53
1575320468.870341,1534.38
1575320468.878589,1533.63
1575320468.886579,1533.4
1575320468.896426,1534.16
1575320468.9073,1536.09
1575320468.916857,1538.35
1575320468.9236338,1540.62
1575320468.9355588,1544.75
1575320468.9442382,1551.05
1575320468.951989,1557.41
1575320468.960414,1565.15
1575320468.9727612,1569.87
1575320468.982589,1570.69
1575320468.9891798,1568.18
1575320469.001249,1562.47
1575320469.009585,1557.3
1575320469.01758,1552.09
1575320469.0261812,1548.77
1575320469.038293,1546.68
1575320469.047931,1543.42
1575320469.054442,1539.81
1575320469.066823,1536.22
1575320469.075217,1532.74
1575320469.08323,1527.0
1575320469.091647,1520.55
1575320469.1036181,1516.0
1575320469.1130528,1512.79
1575320469.120147,1512.82
1575320469.1334689,1514.83
1575320469.140688,1518.4
1575320469.1492429,1520.84
1575320469.1571681,1520.6
1575320469.169333,1517.38
1575320469.1776261,1513.92
1575320469.1854799,1513.46
1575320469.198205,1517.84
1575320469.206282,1525.96
1575320469.215117,1532.45
1575320469.222547,1538.63
1575320469.234646,1542.35
1575320469.24319,1544.35
1575320469.251192,1545.54
1575320469.264988,1545.38
1575320469.271599,1544.83
1575320469.2812989,1544.28
1575320469.287963,1542.92
1575320469.300191,1540.62
1575320469.309025,1539.47
1575320469.316594,1540.27
1575320469.330385,1543.82
1575320469.337112,1547.43
1575320469.3471382,1550.02
1575320469.3534489,1548.2
1575320469.3659992,1544.31
1575320469.374215,1538.95
1575320469.3830369,1534.63
1575320469.3946052,1532.85
1575320469.4025931,1532.87
1575320469.4110951,1533.62
1575320469.4190688,1533.46
1575320469.431993,1532.62
1575320469.439729,1533.36
1575320469.448385,1536.21
1575320469.460125,1542.22
1575320469.46822,1549.67
1575320469.476464,1554.93
1575320469.48452,1557.9
1575320469.4980102,1555.23
1575320469.505025,1549.43
1575320469.513927,1540.93
1575320469.526007,1534.06
1575320469.533727,1528.47
1575320469.542173,1524.58
1575320469.550238,1520.92
1575320469.5632021,1519.21
1575320469.570698,1518.8
1575320469.58054,1518.19
1575320469.591269,1516.56
1575320469.600149,1515.12
1575320469.607579,1514.82
1575320469.616072,1516.26
1575320469.628108,1518.01
1575320469.636202,1519.87
1575320469.644636,1520.18
1575320469.6566641,1519.34
1575320469.665786,1517.33
1575320469.6732001,1515.12
1575320469.681886,1513.47
1575320469.693654,1511.83
1575320469.701626,1510.65
1575320469.709971,1509.39
1575320469.7222059,1505.52
1575320469.7311559,1498.06
1575320469.7387369,1490.62
1575320469.748471,1484.26
1575320469.759361,1485.98
1575320469.767287,1495.3
1575320469.775496,1504.49
1575320469.787694,1512.34
1575320469.797317,1513.03
1575320469.804095,1509.6
1575320469.815712,1503.42
1575320469.824523,1499.03
1575320469.833397,1498.89
1575320469.840977,1502.96
1575320469.853176,1508.22
1575320469.861419,1510.52
1575320469.869502,1508.99
1575320469.8779478,1502.84
1575320469.890252,1496.31
1575320469.899615,1488.75
1575320469.9066792,1485.58
1575320469.9188612,1487.71
1575320469.92706,1495.56
1575320469.9352498,1505.44
1575320469.943379,1511.33
1575320469.955831,1512.69
1575320469.965291,1507.45
1575320469.972221,1501.32
1575320469.984179,1494.37
1575320469.992857,1488.97
1575320470.000733,1485.22
1575320470.00921,1484.27
1575320470.021271,1486.48
1575320470.0305011,1492.1
1575320470.037555,1497.31
1575320470.04973,1500.73
1575320470.058274,1499.22
1575320470.0669,1495.46
1575320470.074631,1490.14
1575320470.086794,1487.9
1575320470.096836,1490.06
1575320470.103035,1497.42
1575320470.116411,1506.55
1575320470.123741,1512.71
1575320470.132284,1517.99
1575320470.1401951,1519.99
1575320470.152213,1519.32
1575320470.1607978,1517.38
1575320470.168521,1516.86
1575320470.182045,1519.03
1575320470.189198,1524.19
1575320470.198215,1529.94
1575320470.205687,1533.46
1575320470.2177448,1535.77
1575320470.2262862,1536.49
1575320470.23407,1537.12
1575320470.248262,1538.14
1575320470.254644,1540.05
1575320470.263544,1541.3
1575320470.271222,1541.34
1575320470.283259,1540.59
1575320470.29175,1540.33
1575320470.300334,1541.51
1575320470.3131158,1545.62
1575320470.320446,1550.85
1575320470.3285198,1553.83
1575320470.33655,1553.41
1575320470.349251,1547.21
1575320470.357041,1539.48
1575320470.365851,1530.82
1575320470.377795,1527.31
1575320470.385768,1528.56
1575320470.3942552,1532.65
1575320470.402049,1536.24
1575320470.414944,1538.23
1575320470.4227579,1539.24
1575320470.431453,1538.79
1575320470.4432352,1536.84
1575320470.451684,1532.0
1575320470.4596329,1525.27
1575320470.46755,1519.73
1575320470.4812129,1518.6
1575320470.488317,1522.18
1575320470.49728,1529.43
1575320470.50894,1535.76
1575320470.5169091,1541.76
1575320470.525202,1544.0
1575320470.533272,1542.44
1575320470.545729,1537.46
1575320470.5536242,1530.54
1575320470.563082,1523.8
1575320470.5744572,1515.38
1575320470.583128,1509.23
1575320470.590654,1507.38
1575320470.5992231,1509.22
1575320470.611219,1514.23
1575320470.619295,1518.89
1575320470.627733,1523.61
1575320470.6396852,1526.19
1575320470.6487858,1527.1
1575320470.656246,1527.15
1575320470.6651862,1525.79
1575320470.6766028,1524.44
1575320470.68474,1523.07
1575320470.6934028,1522.32
1575320470.705282,1522.24
1575320470.714614,1522.04
1575320470.721857,1521.4
1575320470.7308831,1521.72
1575320470.742284,1523.87
1575320470.750286,1529.12
1575320470.75873,1534.91
1575320470.770733,1538.0
1575320470.779816,1539.7
1575320470.787241,1540.35
1575320470.795638,1540.79
1575320470.807746,1540.97
1575320470.816227,1540.38
1575320470.8239858,1539.86
1575320470.836202,1539.81
1575320470.8446012,1541.04
1575320470.852596,1541.11
1575320470.860978,1537.34
1575320470.873162,1529.49
1575320470.881776,1522.32
1575320470.889738,1514.93
1575320470.901688,1510.35
1575320470.910041,1508.92
1575320470.918139,1509.62
1575320470.926446,1512.8
1575320470.938879,1518.01
1575320470.9480681,1522.74
1575320470.955194,1527.28
1575320470.967232,1528.5
1575320470.975968,1526.81
1575320470.983726,1522.67
1575320470.992214,1519.32
1575320471.0041442,1519.36
1575320471.0124002,1522.61
1575320471.020743,1525.86
1575320471.0336509,1525.83
1575320471.041257,1523.0
1575320471.04969,1519.46
1575320471.057751,1517.89
1575320471.06974,1518.55
1575320471.078065,1521.98
1575320471.0861309,1526.66
1575320471.100121,1533.98
1575320471.106753,1540.9
1575320471.115781,1544.54
1575320471.123297,1545.91
1575320471.135277,1544.67
1575320471.143637,1544.1
1575320471.151576,1546.39
1575320471.1648908,1550.85
1575320471.1723468,1554.99
1575320471.181854,1556.48
1575320471.188711,1556.24
1575320471.200782,1554.64
1575320471.209313,1553.38
1575320471.2179031,1552.2
1575320471.230612,1550.77
1575320471.237869,1549.95
1575320471.24761,1551.09
1575320471.2541811,1555.27
1575320471.266984,1559.23
1575320471.274739,1562.3
1575320471.283118,1562.45
1575320471.298205,1560.87
1575320471.303256,1557.57
1575320471.312416,1554.66
1575320471.319798,1554.13
1575320471.332514,1556.79
1575320471.340163,1562.04
1575320471.348747,1565.97
1575320471.3606741,1567.94
1575320471.3686788,1565.92
1575320471.3771148,1562.3
1575320471.385121,1557.32
1575320471.398222,1554.79
1575320471.405836,1556.39
1575320471.415029,1559.94
1575320471.426421,1565.1
1575320471.4344141,1567.87
1575320471.442796,1567.1
1575320471.450607,1562.62
1575320471.464364,1556.11
1575320471.4712498,1551.16
1575320471.4803572,1546.69
1575320471.492012,1543.73
1575320471.500167,1541.71
1575320471.508349,1538.5
1575320471.516673,1535.78
1575320471.528671,1536.89
1575320471.536688,1544.23
1575320471.5449579,1551.84
1575320471.557337,1547.67
1575320471.567659,1516.58
1575320471.573694,1451.7
1575320471.582238,1379.02
1575320471.594361,1270.43
1575320471.602317,1150.3
1575320471.610772,1049.7
1575320471.61874,921.54
1575320471.6272068,818.9
1575320471.6351948,717.26
1575320471.64333,593.77
1575320471.6513522,502.12
1575320471.659779,422.28
1575320471.667718,358.56
1575320471.676387,312.15
1575320471.688246,281.79
1575320471.6973178,262.41
1575320471.704849,257.8
1575320471.714935,259.62
1575320471.721003,264.18
1575320471.730775,269.56
1575320471.737483,275.06
1575320471.746549,282.57
1575320471.753931,289.88
1575320471.762041,298.99
1575320471.770345,309.33
1575320471.778503,319.01
1575320471.7865322,326.29
1575320471.7948139,331.11
1575320471.8029351,333.11
1575320471.811237,335.81
1575320471.819326,341.31
1575320471.8276842,351.15
1575320471.835723,365.23
1575320471.8440561,382.56
1575320471.852028,405.24
1575320471.860448,422.49
1575320471.8684092,438.43
1575320471.87678,453.12
1575320471.8848362,466.96
1575320471.893366,480.59
1575320471.9011998,498.51
1575320471.909847,516.13
1575320471.9177659,539.53
1575320471.926112,568.39
1575320471.9343271,599.87
1575320471.947683,630.99
1575320471.9543931,666.12
1575320471.963881,690.58
1575320471.9709702,712.32
1575320471.9798028,732.83
1575320471.9874308,752.29
1575320471.996269,769.82
1575320472.003742,788.49
1575320472.0118852,801.34
1575320472.020145,813.77
1575320472.028281,826.09
1575320472.036403,839.07
1575320472.0447009,852.86
1575320472.052798,867.7
1575320472.061145,887.33
1575320472.0691571,902.83
1575320472.0777228,917.24
1575320472.085481,930.29
1575320472.094095,942.56
1575320472.102041,954.29
1575320472.1102872,967.87
1575320472.118256,977.81
1575320472.1266282,987.14
1575320472.1346638,996.27
1575320472.1480472,1005.93
1575320472.155345,1018.38
1575320472.164866,1029.94
1575320472.171807,1037.7
1575320472.183727,1045.86
1575320472.1923609,1054.21
1575320472.2003279,1061.38
1575320472.212957,1069.41
1575320472.220799,1074.9
1575320472.2293508,1077.17
1575320472.2372842,1078.86
1575320472.2496252,1081.96
1575320472.2578518,1087.86
1575320472.266592,1100.28
1575320472.2781599,1116.8
1575320472.286258,1131.08
1575320472.297167,1146.96
1575320472.30263,1158.03
1575320472.315786,1163.97
1575320472.3233862,1170.84
1575320472.3325481,1180.3
1575320472.3437152,1193.74
1575320472.351752,1206.59
1575320472.360203,1222.48
1575320472.368205,1236.73
1575320472.3811798,1247.52
1575320472.388868,1260.91
1575320472.398706,1272.98
1575320472.409672,1280.99
1575320472.417346,1289.06
1575320472.425762,1296.15
1575320472.433735,1302.46
1575320472.447932,1311.05
1575320472.454296,1318.39
1575320472.4630778,1321.62
1575320472.4707541,1323.15
1575320472.482889,1323.34
1575320472.491355,1323.18
1575320472.501057,1322.13
1575320472.511552,1319.83
1575320472.519764,1317.77
1575320472.528259,1316.47
1575320472.536114,1318.21
1575320472.548956,1321.9
1575320472.5568929,1327.7
1575320472.5656698,1333.28
1575320472.5772989,1338.15
1575320472.585258,1341.48
1575320472.5936298,1343.96
1575320472.601592,1344.21
1575320472.614725,1343.41
1575320472.62248,1342.53
1575320472.631424,1342.99
1575320472.643042,1344.22
1575320472.6508439,1345.25
1575320472.659297,1345.26
1575320472.667176,1345.25
1575320472.68176,1347.18
1575320472.688642,1352.16
1575320472.697588,1356.88
1575320472.70846,1361.26
1575320472.716804,1363.79
1575320472.7246451,1365.2
1575320472.732953,1366.77
1575320472.745161,1368.08
1575320472.7531898,1368.99
1575320472.761545,1370.72
1575320472.7737129,1373.38
1575320472.782631,1375.4
1575320472.790366,1376.24
1575320472.799983,1374.09
1575320472.810802,1369.7
1575320472.818696,1366.47
1575320472.82741,1364.73
1575320472.839214,1364.33
1575320472.84852,1361.59
1575320472.8556821,1354.24
1575320472.865359,1345.27
1575320472.8764749,1339.2
1575320472.884232,1333.82
1575320472.892905,1329.85
1575320472.904771,1327.75
1575320472.914814,1327.04
1575320472.92151,1327.19
1575320472.930091,1327.02
1575320472.941972,1327.23
1575320472.950699,1329.89
1575320472.958238,1334.13
1575320472.9704041,1341.18
1575320472.978755,1349.07
1575320472.9867818,1355.25
1575320472.99509,1361.71
1575320473.0074098,1366.7
1575320473.016095,1369.45
1575320473.023814,1370.56
1575320473.035777,1369.81
1575320473.044252,1369.24
1575320473.05217,1370.04
1575320473.060788,1372.29
1575320473.072931,1375.71
1575320473.081973,1379.42
1575320473.0893152,1383.88
1575320473.1013088,1386.1
1575320473.109872,1385.64
1575320473.117732,1384.76
1575320473.126362,1386.92
1575320473.1384609,1391.9
1575320473.147727,1400.92
1575320473.1546319,1409.74
1575320473.1668339,1414.94
1575320473.1753678,1418.86
1575320473.183896,1421.9
1575320473.191848,1424.08
1575320473.2037928,1424.99
1575320473.2122629,1423.3
1575320473.2203221,1420.83
1575320473.2330072,1418.25
1575320473.2409291,1418.17
1575320473.249538,1420.17
1575320473.257269,1423.61
1575320473.26926,1425.85
1575320473.277861,1425.74
1575320473.285812,1424.23
1575320473.298744,1421.2
1575320473.3064268,1418.24
1575320473.315375,1417.05
1575320473.3232808,1417.42
1575320473.334808,1419.52
1575320473.3432262,1421.15
1575320473.351264,1421.58
1575320473.364629,1421.03
1575320473.3716989,1421.16
1575320473.380759,1422.55
1575320473.388333,1425.02
1575320473.400275,1427.59
1575320473.408869,1432.98
1575320473.417131,1440.65
1575320473.4294631,1447.04
1575320473.437236,1454.71
1575320473.44662,1460.59
1575320473.4537868,1463.48
1575320473.466354,1465.21
1575320473.47441,1466.57
1575320473.482948,1468.69
1575320473.497231,1472.96
1575320473.502709,1477.12
1575320473.511332,1479.36
1575320473.5192719,1479.32
1575320473.532384,1477.79
1575320473.5398662,1476.65
1575320473.548706,1478.22
1575320473.560241,1485.12
1575320473.5683541,1496.3
1575320473.5766678,1505.12
1575320473.5846772,1511.71
1575320473.597385,1512.96
1575320473.605439,1511.92
1575320473.6140769,1509.0
1575320473.626086,1505.95
1575320473.633944,1504.93
1575320473.642348,1505.62
1575320473.6505558,1504.97
1575320473.663213,1500.3
1575320473.670882,1489.07
1575320473.680644,1475.47
1575320473.6914508,1466.26
1575320473.699971,1459.31
1575320473.707823,1457.71
1575320473.716341,1459.27
1575320473.728329,1463.31
1575320473.736254,1468.32
1575320473.745089,1472.45
1575320473.7571242,1474.65
1575320473.766227,1476.51
1575320473.773349,1477.53
1575320473.7825909,1477.21
1575320473.793757,1475.11
1575320473.801728,1471.8
1575320473.810074,1468.41
1575320473.822289,1463.39
1575320473.832157,1457.43
1575320473.8387032,1452.94
1575320473.8483222,1447.88
1575320473.8592288,1442.97
1575320473.867383,1440.24
1575320473.875613,1442.57
1575320473.88786,1453.7
1575320473.89802,1466.1
1575320473.904242,1480.34
1575320473.913867,1490.33
1575320473.9250162,1496.37
1575320473.933606,1503.26
1575320473.9413152,1509.38
1575320473.953471,1513.69
1575320473.961803,1518.23
1575320473.969862,1521.48
1575320473.9781451,1524.17
1575320473.9904041,1526.96
1575320473.9995031,1531.06
1575320474.0068521,1535.0
1575320474.018791,1537.27
1575320474.027426,1538.22
1575320474.035331,1536.71
1575320474.0436149,1534.59
1575320474.055868,1532.44
1575320474.0651789,1531.16
1575320474.072455,1529.98
1575320474.084346,1528.34
1575320474.092909,1527.16
1575320474.10079,1526.41
1575320474.109407,1525.06
1575320474.121483,1522.11
1575320474.131181,1518.34
1575320474.137695,1512.69
1575320474.150031,1507.4
1575320474.158558,1504.74
1575320474.1670852,1504.58
1575320474.174838,1505.87
1575320474.18684,1506.49
1575320474.1950998,1506.14
1575320474.203367,1505.72
1575320474.216964,1506.78
1575320474.2239108,1508.56
1575320474.232715,1512.09
1575320474.240285,1515.01
1575320474.252393,1513.59
1575320474.2608,1503.2
1575320474.268857,1482.84
1575320474.281547,1463.2
1575320474.289418,1440.82
1575320474.2986722,1425.38
1575320474.305866,1417.51
1575320474.3178382,1410.41
1575320474.326425,1404.77
1575320474.334274,1401.53
1575320474.347481,1399.9
1575320474.3547788,1401.04
1575320474.364702,1403.15
1575320474.371246,1405.77
1575320474.3834372,1407.18
1575320474.391884,1407.08
1575320474.400539,1405.65
1575320474.412284,1403.75
1575320474.420222,1403.6
1575320474.428576,1406.49
1575320474.4368598,1411.75
1575320474.4496498,1415.77
1575320474.457432,1416.59
1575320474.4661062,1416.08
1575320474.477942,1415.92
1575320474.485844,1418.97
1575320474.4943402,1430.7
1575320474.502265,1451.98
1575320474.515672,1471.89
1575320474.522846,1494.15
1575320474.5320199,1510.66
1575320474.543417,1520.21
1575320474.551539,1529.91
1575320474.5598888,1537.7
1575320474.567708,1542.42
1575320474.5814881,1546.39
1575320474.5883148,1547.48
1575320474.597486,1545.7
1575320474.6089249,1540.39
1575320474.616867,1533.21
1575320474.625404,1527.84
1575320474.633646,1523.09
1575320474.645803,1520.1
1575320474.6539252,1518.91
1575320474.662092,1518.04
1575320474.674325,1515.69
1575320474.6826088,1511.5
1575320474.690644,1508.25
1575320474.699575,1506.41
1575320474.711398,1508.19
1575320474.719351,1511.35
1575320474.727851,1515.07
1575320474.739945,1516.19
1575320474.748659,1515.16
1575320474.756505,1512.65
1575320474.766164,1512.37
1575320474.776784,1519.92
1575320474.78493,1548.69
1575320474.793411,1604.91
1575320474.8052669,1668.77
1575320474.814992,1765.78
1575320474.821871,1873.39
1575320474.831157,1961.45
1575320474.842156,2069.32
1575320474.850677,2170.9
1575320474.858547,2245.62
1575320474.870883,2331.47
1575320474.879971,2410.93
1575320474.887409,2470.71
1575320474.8988218,2539.56
1575320474.907912,2598.98
1575320474.916333,2648.45
1575320474.924479,2681.04
1575320474.936401,2711.75
1575320474.944758,2730.49
1575320474.952765,2738.16
1575320474.961257,2740.46
1575320474.973384,2736.64
1575320474.982263,2729.8
1575320474.989897,2716.77
1575320475.001896,2700.8
1575320475.0100968,2687.05
1575320475.0182772,2667.96
1575320475.0264761,2646.36
1575320475.038839,2627.28
1575320475.0481532,2603.04
1575320475.055375,2580.22
1575320475.067963,2563.55
1575320475.075952,2545.03
1575320475.0845199,2529.84
1575320475.0922198,2519.02
1575320475.104457,2505.07
1575320475.112721,2491.68
1575320475.120801,2483.22
1575320475.134434,2476.04
1575320475.1414201,2470.75
1575320475.150024,2464.3
1575320475.157892,2457.66
1575320475.169927,2447.85
1575320475.1783402,2438.1
1575320475.1862972,2430.91
1575320475.1991959,2421.55
1575320475.206982,2409.15
1575320475.215734,2395.96
1575320475.2234418,2376.0
1575320475.235404,2354.6
1575320475.244021,2337.45
1575320475.2519062,2317.07
1575320475.266366,2298.58
1575320475.272432,2285.52
1575320475.2818408,2271.1
1575320475.288921,2257.3
1575320475.30094,2245.64
1575320475.30966,2230.12
1575320475.317288,2214.56
1575320475.3320289,2202.77
1575320475.3381388,2188.45
1575320475.3486872,2172.99
1575320475.354271,2160.51
1575320475.367104,2147.38
1575320475.3747132,2138.96
1575320475.383515,2133.67
1575320475.395304,2129.41
1575320475.403357,2121.79
1575320475.411674,2111.16
1575320475.4198241,2101.19
1575320475.432636,2088.75
1575320475.4404259,2078.72
1575320475.4492779,2072.78
1575320475.4608681,2065.81
1575320475.4691892,2056.82
1575320475.477451,2046.96
1575320475.485308,2032.23
1575320475.498382,2016.97
1575320475.505885,2005.17
1575320475.516264,1990.69
1575320475.526612,1976.56
1575320475.534384,1966.65
1575320475.542947,1956.98
1575320475.5507588,1949.79
1575320475.564704,1944.38
1575320475.5714319,1936.67
1575320475.581101,1928.19
1575320475.592032,1921.04
1575320475.600618,1912.05
1575320475.608421,1903.35
1575320475.616688,1895.39
1575320475.62885,1889.12
1575320475.636836,1882.17
1575320475.6451352,1876.55
1575320475.657402,1873.02
1575320475.667072,1868.68
1575320475.673837,1863.41
1575320475.682519,1857.81
1575320475.694577,1847.86
1575320475.702372,1834.89
1575320475.710795,1823.66
1575320475.722952,1810.86
1575320475.732758,1801.76
1575320475.7395022,1797.52
1575320475.748487,1795.28
1575320475.7600331,1794.0
1575320475.767977,1792.26
1575320475.7764611,1788.99
1575320475.7884212,1784.55
1575320475.7974432,1779.35
1575320475.805009,1769.57
1575320475.81696,1757.46
1575320475.8254669,1748.5
1575320475.8334332,1740.37
1575320475.8418188,1734.34
1575320475.853982,1727.25
1575320475.8635368,1719.37
1575320475.870302,1707.65
1575320475.878644,1697.96
1575320475.890997,1693.78
1575320475.899356,1692.95
1575320475.907478,1695.65
1575320475.919511,1699.02
1575320475.9279082,1702.76
1575320475.935821,1704.87
1575320475.944319,1704.87
1575320475.956506,1702.14
1575320475.96517,1697.07
1575320475.973,1692.44
1575320475.9850419,1687.1
1575320475.9933288,1683.23
1575320476.00151,1681.77
1575320476.0099509,1681.1
1575320476.0219798,1678.93
1575320476.032246,1674.65
1575320476.038303,1667.22
1575320476.050504,1659.67
1575320476.058995,1654.43
1575320476.066935,1648.14
1575320476.075417,1641.77
1575320476.087316,1636.49
1575320476.0992,1634.1
1575320476.1038349,1634.51
1575320476.11642,1637.79
1575320476.124491,1640.41
1575320476.133194,1641.25
1575320476.140977,1638.54
1575320476.1531022,1634.99
1575320476.161404,1630.03
1575320476.1692748,1626.78
1575320476.1824589,1626.53
1575320476.189804,1628.02
1575320476.198675,1628.78
1575320476.206448,1627.5
1575320476.218475,1623.34
1575320476.22679,1618.24
1575320476.234839,1614.89
1575320476.2486458,1612.04
1575320476.255771,1610.37
1575320476.2652538,1609.63
1575320476.271968,1609.53
1575320476.283966,1610.87
1575320476.292396,1612.45
1575320476.3003619,1612.65
1575320476.313288,1609.23
1575320476.320971,1602.27
1575320476.3297238,1595.43
1575320476.337894,1588.34
1575320476.349993,1585.36
1575320476.357763,1585.32
1575320476.36705,1586.77
1575320476.378324,1588.35
1575320476.3863308,1588.81
1575320476.394825,1587.34
1575320476.402773,1584.48
1575320476.416002,1582.4
1575320476.42348,1580.14
1575320476.4324129,1578.84
1575320476.4439669,1577.71
1575320476.451981,1575.67
1575320476.460296,1573.56
1575320476.468299,1573.22
1575320476.4821398,1575.44
1575320476.489053,1579.86
1575320476.4979358,1584.0
1575320476.5096278,1587.73
1575320476.5174751,1587.89
1575320476.525972,1584.91
1575320476.53416,1577.4
1575320476.547199,1567.33
1575320476.554537,1556.59
1575320476.563335,1549.5
1575320476.570904,1544.85
1575320476.583573,1544.92
1575320476.5914838,1546.65
1575320476.600286,1548.03
1575320476.611795,1546.85
1575320476.6198232,1544.15
1575320476.628437,1539.96
1575320476.636251,1536.42
1575320476.649135,1534.23
1575320476.657089,1532.22
1575320476.6657522,1531.2
1575320476.677495,1531.36
1575320476.685364,1532.45
1575320476.694189,1533.15
1575320476.7018392,1532.81
1575320476.715254,1532.55
1575320476.722558,1534.17
1575320476.7327528,1537.09
1575320476.743113,1540.82
1575320476.7510421,1542.19
1575320476.7594,1540.63
1575320476.7673972,1536.22
1575320476.780467,1530.91
1575320476.7879832,1526.23
1575320476.7968152,1524.6
1575320476.8086631,1526.29
1575320476.817152,1531.25
1575320476.8248708,1536.26
1575320476.833534,1542.44
1575320476.848035,1547.15
1575320476.853405,1549.09
1575320476.8617449,1549.23
1575320476.873846,1548.15
1575320476.8833761,1548.62
1575320476.8904252,1552.51
1575320476.8989592,1558.72
1575320476.910911,1562.43
1575320476.918953,1562.41
1575320476.9273999,1557.69
1575320476.939404,1552.47
1575320476.94878,1546.66
1575320476.955916,1542.19
1575320476.9651651,1539.44
1575320476.976701,1537.02
1575320476.9845278,1535.73
1575320476.9929888,1534.98
1575320477.0049028,1533.68
1575320477.0146508,1531.13
1575320477.021536,1528.5
1575320477.032117,1527.71
1575320477.0420532,1529.0
1575320477.049932,1533.9
1575320477.058503,1540.24
1575320477.070436,1548.58
1575320477.0788212,1553.67
1575320477.086785,1553.36
1575320477.099266,1547.21
1575320477.1074681,1535.79
1575320477.116081,1525.15
1575320477.1240141,1514.07
1575320477.136053,1508.67
1575320477.144553,1510.08
1575320477.1524532,1520.21
1575320477.1607192,1537.65
1575320477.1730812,1552.12
1575320477.182014,1563.15
1575320477.189471,1562.11
1575320477.201479,1553.66
1575320477.210052,1539.31
1575320477.217891,1528.54
1575320477.226367,1526.39
1575320477.238595,1532.18
1575320477.2474098,1544.86
1575320477.25503,1559.49
1575320477.267067,1567.46
1575320477.2755358,1568.97
1575320477.28383,1561.91
1575320477.291924,1553.36
1575320477.30407,1542.8
1575320477.312437,1535.97
1575320477.320342,1534.91
1575320477.332923,1538.11
1575320477.341223,1540.12
1575320477.350098,1536.49
1575320477.357246,1525.01
1575320477.3693771,1509.93
1575320477.377981,1499.05
1575320477.385827,1490.13
1575320477.399033,1488.48
1575320477.406589,1492.43
1575320477.415349,1501.47
1575320477.422982,1511.06
1575320477.434927,1518.15
1575320477.443454,1525.91
1575320477.4513521,1531.41
1575320477.465417,1534.02
1575320477.472078,1535.57
1575320477.481539,1535.56
1575320477.4885051,1533.07
1575320477.50051,1529.51
1575320477.508749,1525.58
1575320477.516903,1524.89
1575320477.529411,1527.17
1575320477.5374238,1532.33
1575320477.5459998,1537.8
1575320477.554025,1541.44
1575320477.566462,1544.56
1575320477.574553,1545.08
1575320477.583227,1543.17
1575320477.5948129,1537.34
1575320477.603074,1529.62
1575320477.611422,1524.48
1575320477.619345,1522.32
1575320477.6327958,1524.77
1575320477.640036,1527.2
1575320477.6494122,1527.81
1575320477.660445,1524.52
1575320477.6684642,1519.66
1575320477.676838,1512.26
1575320477.684875,1506.47
1575320477.6986601,1505.62
1575320477.705495,1509.6
1575320477.715946,1516.64
1575320477.726099,1522.66
1575320477.735322,1524.78
1575320477.742153,1523.45
1575320477.750387,1518.1
1575320477.762882,1511.75
1575320477.770881,1503.23
1575320477.779148,1497.78
1575320477.7915368,1497.19
1575320477.800672,1500.84
1575320477.80799,1507.0
1575320477.81645,1511.75
1575320477.828446,1514.34
1575320477.836423,1512.03
1575320477.845268,1508.56
1575320477.8569689,1505.29
1575320477.8661811,1505.82
1575320477.873375,1508.6
1575320477.883444,1512.66
1575320477.893773,1513.75
1575320477.9019158,1511.54
1575320477.910413,1506.47
1575320477.922675,1502.02
1575320477.931765,1500.58
1575320477.939065,1502.27
1575320477.9484632,1508.69
1575320477.959533,1519.45
1575320477.967576,1529.72
1575320477.975959,1541.23
1575320477.987932,1547.29
1575320477.998239,1546.86
1575320478.004501,1541.82
1575320478.012876,1536.21
1575320478.0247848,1534.24
1575320478.0335171,1536.47
1575320478.0414982,1542.72
1575320478.053472,1549.31
1575320478.061862,1557.4
1575320478.069891,1561.41
1575320478.078322,1559.75
1575320478.090385,1552.02
1575320478.099196,1542.0
1575320478.107018,1535.62
1575320478.1189692,1532.58
1575320478.1274781,1534.49
1575320478.1353889,1537.27
1575320478.143817,1539.21
1575320478.156054,1537.41
1575320478.165129,1533.48
1575320478.172548,1528.12
1575320478.184543,1525.39
1575320478.193127,1527.83
1575320478.2009861,1534.25
1575320478.209425,1546.64
1575320478.221566,1560.86
1575320478.231585,1571.34
1575320478.237858,1580.93
1575320478.2504802,1585.29
1575320478.2585971,1585.01
1575320478.2675982,1581.23
1575320478.274956,1575.86
1575320478.286998,1572.38
1575320478.2954612,1570.22
1575320478.303493,1570.99
1575320478.3163571,1573.55
1575320478.324089,1578.45
1575320478.3329751,1584.41
1575320478.340868,1588.97
1575320478.352749,1592.96
1575320478.360876,1593.88
1575320478.368897,1591.99
1575320478.3818681,1586.56
1575320478.389452,1579.61
1575320478.3987699,1574.96
1575320478.4060118,1571.57
1575320478.4179788,1571.25
1575320478.426462,1571.78
1575320478.434418,1570.7
1575320478.447509,1565.61
1575320478.4550772,1557.12
1575320478.4634728,1550.8
1575320478.471356,1547.26
1575320478.4836779,1549.76
1575320478.492002,1554.01
1575320478.500868,1558.36
1575320478.51232,1558.1
1575320478.520549,1553.9
1575320478.5287712,1544.95
1575320478.5369,1535.23
1575320478.549761,1529.18
1575320478.5575528,1525.35
1575320478.566467,1525.42
1575320478.5781581,1527.48
1575320478.586,1531.73
1575320478.594464,1535.37
1575320478.6023428,1536.47
1575320478.615316,1535.23
1575320478.6230872,1531.75
1575320478.633294,1528.21
1575320478.643568,1523.67
1575320478.652417,1520.72
1575320478.660206,1520.11
1575320478.668304,1520.72
1575320478.681775,1521.26
1575320478.6886468,1519.91
1575320478.6977978,1517.69
1575320478.70911,1515.07
1575320478.7173371,1514.85
1575320478.7254798,1517.05
1575320478.7336462,1521.62
1575320478.745839,1525.41
1575320478.75407,1526.64
1575320478.762291,1526.1
1575320478.774529,1524.03
1575320478.783489,1521.69
1575320478.791051,1518.82
1575320478.7997901,1516.91
1575320478.811637,1517.39
1575320478.8195698,1519.73
1575320478.8279738,1521.47
1575320478.839916,1521.56
1575320478.849995,1521.0
1575320478.856386,1520.35
1575320478.866038,1519.76
1575320478.876907,1518.24
1575320478.8849542,1516.35
1575320478.893526,1515.88
1575320478.905406,1517.05
1575320478.914616,1521.02
1575320478.922166,1527.03
1575320478.931604,1532.86
1575320478.9426382,1539.84
1575320478.950537,1544.63
1575320478.959053,1546.18
1575320478.971039,1545.98
1575320478.9799309,1545.79
1575320478.987552,1546.96
1575320478.9959412,1549.93
1575320479.008001,1553.29
1575320479.016553,1555.75
1575320479.02461,1558.78
1575320479.036569,1561.61
1575320479.045056,1563.39
1575320479.0530229,1564.72
1575320479.061492,1564.44
1575320479.073688,1563.45
1575320479.082747,1561.97
1575320479.089878,1560.8
1575320479.102098,1560.17
1575320479.110421,1558.8
1575320479.118454,1556.65
1575320479.127,1554.82
1575320479.13904,1554.64
1575320479.148216,1556.27
1575320479.1554759,1557.58
1575320479.167588,1556.6
1575320479.176063,1552.12
1575320479.184006,1544.8
1575320479.19247,1538.4
1575320479.204632,1531.47
1575320479.2138271,1526.93
1575320479.221025,1524.73
1575320479.233634,1522.24
1575320479.241578,1519.83
1575320479.2499971,1519.06
1575320479.258087,1521.06
1575320479.2701209,1525.52
1575320479.2785301,1529.15
1575320479.286509,1532.12
1575320479.299229,1532.81
1575320479.307035,1531.65
1575320479.315569,1527.97
1575320479.32341,1522.65
1575320479.33552,1518.22
1575320479.344029,1513.12
1575320479.352117,1508.92
1575320479.365421,1506.5
1575320479.3724349,1506.03
1575320479.382145,1506.85
1575320479.388812,1507.8
1575320479.401035,1507.95
1575320479.409579,1506.76
1575320479.41746,1503.46
1575320479.431322,1500.24
1575320479.4380522,1496.71
1575320479.4472241,1494.85
1575320479.454589,1495.86
1575320479.4667761,1501.15
1575320479.475117,1509.07
1575320479.483763,1514.5
1575320479.495727,1517.47
1575320479.503556,1516.28
1575320479.511727,1513.81
1575320479.520073,1511.31
1575320479.53284,1512.1
1575320479.540599,1515.89
1575320479.5496,1523.47
1575320479.560944,1532.03
1575320479.569083,1538.11
1575320479.577431,1543.74
1575320479.585493,1547.28
1575320479.5994968,1548.23
1575320479.6060522,1546.82
1575320479.6153321,1542.84
1575320479.6267269,1537.88
1575320479.634579,1534.78
1575320479.6431448,1532.59
1575320479.651007,1531.43
1575320479.664372,1530.81
1575320479.6714828,1529.59
1575320479.681277,1527.61
1575320479.692172,1526.45
1575320479.7006972,1525.92
1575320479.708587,1526.44
1575320479.716587,1527.64
1575320479.729007,1530.49
1575320479.7371168,1535.6
1575320479.7473211,1541.37
1575320479.757728,1549.67
1575320479.766609,1557.49
1575320479.774034,1562.23
1575320479.7826629,1565.62
1575320479.79461,1567.22
1575320479.8025632,1567.38
1575320479.8109848,1565.78
1575320479.8231308,1562.45
1575320479.83199,1558.56
1575320479.83967,1555.64
1575320479.849765,1552.84
1575320479.859884,1551.0
1575320479.8681731,1550.46
1575320479.876343,1550.86
1575320479.8885398,1551.82
1575320479.8979352,1552.19
1575320479.905174,1551.05
1575320479.9141278,1548.85
1575320479.925736,1547.01
1575320479.934449,1543.75
1575320479.941958,1538.09
