1575319709.18204,0.0
1575319709.189337,0.0
1575319709.193366,0.0
1575319709.201571,0.0
1575319709.205615,0.0
1575319709.2141912,0.0
1575319709.2180202,0.0
1575319709.226284,0.0
1575319709.23025,11.88
1575319709.238537,11.88
1575319709.247757,11.88
1575319709.254731,45.93
1575319709.263787,126.87
1575319709.271071,312.77
1575319709.280214,499.74
1575319709.287551,625.03
1575319709.296643,731.68
1575319709.303969,823.23
1575319709.31359,901.17
1575319709.320414,967.41
1575319709.330224,1037.19
1575319709.340794,1086.03
1575319709.349459,1139.52
1575319709.3571851,1181.5
1575319709.366123,1204.69
1575319709.377771,1222.32
1575319709.385994,1235.13
1575319709.3941069,1247.36
1575319709.4063349,1265.44
1575319709.415141,1281.79
1575319709.4228039,1290.03
1575319709.431657,1291.11
1575319709.443308,1283.68
1575319709.451345,1278.02
1575319709.4596741,1278.89
1575319709.471779,1290.91
1575319709.480572,1306.3
1575319709.488297,1327.09
1575319709.497291,1344.51
1575319709.508842,1354.07
1575319709.516982,1360.61
1575319709.525258,1365.27
1575319709.537389,1373.02
1575319709.546299,1382.23
1575319709.55427,1395.21
1575319709.5632489,1405.43
1575319709.57433,1410.06
1575319709.582608,1413.31
1575319709.590723,1417.17
1575319709.602947,1422.01
1575319709.611232,1428.95
1575319709.619328,1434.89
1575319709.6276639,1439.04
1575319709.63981,1445.67
1575319709.6485069,1455.0
1575319709.6562948,1463.68
1575319709.6685,1472.44
1575319709.676897,1475.26
1575319709.685021,1473.43
1575319709.6947122,1468.78
1575319709.705397,1462.58
1575319709.7152588,1455.88
1575319709.721892,1445.05
1575319709.734593,1433.69
1575319709.742369,1426.47
1575319709.750656,1421.33
1575319709.7587252,1419.14
1575319709.770821,1417.28
1575319709.780063,1415.49
1575319709.787361,1413.96
1575319709.799602,1414.14
1575319709.8080251,1414.84
1575319709.81724,1414.72
1575319709.824332,1413.17
1575319709.836658,1412.33
1575319709.845898,1413.43
1575319709.852811,1417.21
1575319709.865077,1419.93
1575319709.873745,1420.0
1575319709.882366,1417.72
1575319709.89001,1417.29
1575319709.902186,1421.89
1575319709.910947,1430.1
1575319709.918533,1435.68
1575319709.93137,1438.62
1575319709.938963,1435.78
1575319709.947666,1430.13
1575319709.9555452,1422.22
1575319709.967582,1415.56
1575319709.975786,1412.08
1575319709.984071,1409.89
1575319709.997099,1408.53
1575319710.004422,1405.29
1575319710.01324,1399.26
1575319710.021027,1388.49
1575319710.032971,1382.06
1575319710.04161,1384.27
1575319710.0495412,1393.61
1575319710.062804,1400.99
1575319710.070142,1402.21
1575319710.078735,1400.02
1575319710.086559,1394.82
1575319710.0985951,1386.58
1575319710.1072488,1370.82
1575319710.114984,1353.54
1575319710.1281128,1343.85
1575319710.135612,1340.96
1575319710.1445382,1347.61
1575319710.1520991,1357.56
1575319710.1641731,1371.86
1575319710.172608,1384.57
1575319710.181717,1392.22
1575319710.1950212,1399.23
1575319710.201129,1405.1
1575319710.211643,1410.47
1575319710.217342,1419.39
1575319710.2304928,1431.05
1575319710.237906,1441.73
1575319710.246687,1446.39
1575319710.258792,1445.67
1575319710.26667,1438.18
1575319710.27507,1431.58
1575319710.282888,1433.31
1575319710.2960231,1456.64
1575319710.3036082,1492.67
1575319710.3122401,1553.86
1575319710.324044,1623.04
1575319710.332132,1678.4
1575319710.340389,1744.51
1575319710.34847,1805.97
1575319710.361634,1849.52
1575319710.369088,1894.15
1575319710.377873,1927.16
1575319710.389798,1947.65
1575319710.3976588,1969.61
1575319710.4060988,1987.71
1575319710.414618,1998.42
1575319710.426816,2007.38
1575319710.434612,2013.77
1575319710.44323,2017.65
1575319710.455347,2018.84
1575319710.4637818,2016.28
1575319710.471638,2013.56
1575319710.4806988,2012.88
1575319710.492046,2015.21
1575319710.499982,2019.87
1575319710.5084999,2022.3
1575319710.520521,2018.12
1575319710.5294368,2005.4
1575319710.53711,1992.39
1575319710.545804,1977.32
1575319710.557636,1963.33
1575319710.5656111,1951.11
1575319710.573956,1935.16
1575319710.58599,1921.65
1575319710.595032,1913.82
1575319710.602656,1905.97
1575319710.6111412,1899.68
1575319710.623142,1896.41
1575319710.631136,1893.31
1575319710.6395898,1889.0
1575319710.651509,1885.1
1575319710.660029,1881.84
1575319710.668114,1880.23
1575319710.676548,1878.17
1575319710.68856,1872.3
1575319710.697609,1864.61
1575319710.704916,1860.24
1575319710.717022,1862.89
1575319710.725397,1876.35
1575319710.733397,1896.34
1575319710.742074,1912.47
1575319710.7540119,1929.9
1575319710.763359,1943.6
1575319710.770657,1952.47
1575319710.7825549,1960.31
1575319710.7909381,1963.33
1575319710.798968,1962.29
1575319710.807351,1957.58
1575319710.819627,1949.92
1575319710.828736,1942.83
1575319710.836083,1935.48
1575319710.8481972,1932.24
1575319710.856738,1931.02
1575319710.864922,1925.73
1575319710.873078,1912.69
1575319710.884989,1897.98
1575319710.894374,1878.01
1575319710.901602,1858.66
1575319710.914447,1843.66
1575319710.922123,1826.1
1575319710.930722,1810.75
1575319710.938495,1798.87
1575319710.9505658,1792.72
1575319710.9588969,1788.52
1575319710.966998,1786.23
1575319710.980128,1785.09
1575319710.987663,1784.44
1575319710.996309,1785.0
1575319711.004082,1786.44
1575319711.016059,1786.92
1575319711.024516,1781.6
1575319711.0325959,1772.97
1575319711.045598,1759.71
1575319711.053217,1749.31
1575319711.062434,1747.52
1575319711.0696151,1755.44
1575319711.0816588,1769.57
1575319711.0902169,1779.34
1575319711.098287,1784.98
1575319711.1113138,1783.77
1575319711.1186519,1780.22
1575319711.1281018,1774.94
1575319711.135065,1768.77
1575319711.148004,1763.57
1575319711.155463,1757.93
1575319711.16368,1752.32
1575319711.175959,1747.9
1575319711.1841211,1747.71
1575319711.195877,1751.81
1575319711.200591,1756.34
1575319711.2133539,1757.47
1575319711.220992,1756.22
1575319711.2297869,1754.27
1575319711.241555,1753.83
1575319711.249519,1755.15
1575319711.257922,1755.55
1575319711.265929,1752.8
1575319711.27878,1745.76
1575319711.286669,1739.01
1575319711.295789,1736.51
1575319711.307324,1736.84
1575319711.315089,1736.54
1575319711.323766,1732.39
1575319711.332344,1721.49
1575319711.344555,1708.66
1575319711.352135,1701.79
1575319711.36171,1699.95
1575319711.372832,1702.72
1575319711.38123,1703.76
1575319711.389159,1701.47
1575319711.398762,1697.36
1575319711.40944,1692.47
1575319711.417683,1684.72
1575319711.425942,1664.69
1575319711.438047,1633.98
1575319711.446864,1607.82
1575319711.454653,1580.91
1575319711.463365,1563.49
1575319711.475146,1554.74
1575319711.48307,1546.7
1575319711.491507,1539.47
1575319711.503634,1534.19
1575319711.512471,1529.02
1575319711.52024,1526.38
1575319711.529013,1525.52
1575319711.540598,1524.99
1575319711.5485618,1524.22
1575319711.5572639,1524.18
1575319711.569023,1526.62
1575319711.5786061,1531.78
1575319711.585566,1536.48
1575319711.59521,1540.69
1575319711.606207,1542.77
1575319711.615656,1544.17
1575319711.622634,1546.55
1575319711.634743,1547.9
1575319711.6429892,1546.42
1575319711.651113,1544.03
1575319711.659555,1541.66
1575319711.671673,1540.63
1575319711.680286,1539.36
1575319711.688545,1534.38
1575319711.70069,1526.04
1575319711.717767,1519.99
1575319711.718163,1516.3
1575319711.724865,1516.41
1575319711.737057,1516.77
1575319711.746185,1514.58
1575319711.755113,1508.4
1575319711.765604,1500.99
1575319711.7741199,1490.35
1575319711.783208,1481.63
1575319711.790587,1477.68
1575319711.8027651,1476.21
1575319711.811892,1477.53
1575319711.819026,1480.68
1575319711.8319519,1487.73
1575319711.839627,1498.32
1575319711.84768,1507.94
1575319711.856151,1517.83
1575319711.868076,1524.06
1575319711.8764942,1528.74
1575319711.884633,1533.44
1575319711.898371,1541.0
1575319711.905181,1547.57
1575319711.9138482,1550.46
1575319711.9215958,1554.24
1575319711.933662,1559.55
1575319711.942164,1559.88
1575319711.950132,1550.74
1575319711.963012,1538.93
1575319711.97074,1537.37
1575319711.97939,1544.74
1575319711.987092,1551.32
1575319711.9992619,1552.22
1575319712.0075479,1548.71
1575319712.0157619,1539.52
1575319712.029122,1530.95
1575319712.036176,1530.82
1575319712.0451992,1546.09
1575319712.052653,1558.63
1575319712.0646899,1562.83
1575319712.0731719,1559.2
1575319712.0817878,1555.63
1575319712.093766,1548.11
1575319712.101574,1542.33
1575319712.1098711,1543.56
1575319712.118124,1546.87
1575319712.130631,1552.87
1575319712.138726,1558.72
1575319712.147524,1558.28
1575319712.159047,1553.88
1575319712.167117,1566.75
1575319712.1755269,1599.71
1575319712.18344,1648.66
1575319712.1963809,1672.51
1575319712.2040472,1666.71
1575319712.2129521,1643.25
1575319712.224583,1619.95
1575319712.2328079,1601.35
1575319712.240879,1572.71
1575319712.2490182,1545.33
1575319712.262132,1531.88
1575319712.269643,1526.78
1575319712.278603,1527.22
1575319712.290379,1527.01
1575319712.298273,1524.8
1575319712.3066828,1521.76
1575319712.315259,1519.41
1575319712.327094,1517.21
1575319712.335648,1516.78
1575319712.344259,1518.91
1575319712.355627,1522.72
1575319712.364172,1529.06
1575319712.372224,1534.46
1575319712.380736,1538.14
1575319712.39254,1542.96
1575319712.400596,1548.77
1575319712.409121,1554.94
1575319712.42116,1563.68
1575319712.429848,1569.66
1575319712.4376802,1571.21
1575319712.4466078,1573.46
1575319712.4679072,1581.08
1575319712.4682171,1590.81
1575319712.4745998,1603.06
1575319712.486794,1610.22
1575319712.4949791,1611.24
1575319712.503291,1610.18
1575319712.5124211,1612.73
1575319712.5238988,1618.39
1575319712.5319302,1625.73
1575319712.540235,1630.23
1575319712.552187,1631.53
1575319712.561874,1631.04
1575319712.568694,1630.2
1575319712.5770729,1631.08
1575319712.589238,1631.95
1575319712.5983539,1630.66
1575319712.6057029,1628.42
1575319712.6176908,1627.88
1575319712.625932,1629.2
1575319712.634193,1631.32
1575319712.642606,1632.2
1575319712.6544588,1631.07
1575319712.663184,1627.41
1575319712.671044,1623.42
1575319712.6831439,1619.54
1575319712.692947,1618.4
1575319712.699996,1618.29
1575319712.7078831,1616.92
1575319712.720045,1614.09
1575319712.7290618,1611.93
1575319712.736534,1610.29
1575319712.748713,1608.41
1575319712.7572439,1605.4
1575319712.765193,1599.88
1575319712.7738008,1593.19
1575319712.785752,1588.59
1575319712.794919,1585.48
1575319712.8019998,1583.06
1575319712.814357,1576.56
1575319712.8227499,1568.76
1575319712.8312829,1560.24
1575319712.839073,1557.26
1575319712.851292,1559.4
1575319712.859617,1566.03
1575319712.8676322,1570.73
1575319712.880241,1569.86
1575319712.888136,1564.72
1575319712.8969889,1560.09
1575319712.9045691,1561.98
1575319712.91666,1575.95
1575319712.9252,1594.66
1575319712.933074,1603.03
1575319712.946208,1602.3
1575319712.953708,1595.39
1575319712.962334,1590.99
1575319712.970182,1589.42
1575319712.982122,1590.51
1575319712.990826,1592.83
1575319712.9988601,1595.9
1575319713.012253,1594.35
1575319713.019122,1588.38
1575319713.028354,1578.02
1575319713.035734,1569.6
1575319713.048938,1565.49
1575319713.0561879,1564.27
1575319713.064576,1562.58
1575319713.076641,1558.77
1575319713.084705,1553.98
1575319713.096066,1545.77
1575319713.101194,1535.49
1575319713.113944,1526.97
1575319713.121643,1517.88
1575319713.1304011,1512.5
1575319713.1422799,1511.54
1575319713.150311,1514.13
1575319713.158559,1519.28
1575319713.166527,1523.46
1575319713.179599,1527.21
1575319713.1873658,1530.05
1575319713.1973062,1533.65
1575319713.207495,1541.76
1575319713.2156742,1553.13
1575319713.224053,1562.21
1575319713.232081,1569.41
1575319713.24512,1569.33
1575319713.252713,1564.07
1575319713.261618,1554.19
1575319713.273417,1544.88
1575319713.281248,1539.57
1575319713.289747,1538.72
1575319713.298356,1540.42
1575319713.3099551,1543.37
1575319713.318329,1545.25
1575319713.3264132,1544.92
1575319713.3346822,1540.89
1575319713.347221,1535.99
1575319713.3552608,1529.57
1575319713.364154,1523.95
1575319713.375707,1520.3
1575319713.383643,1516.02
1575319713.392085,1512.99
1575319713.39995,1512.97
1575319713.4131489,1516.48
1575319713.4206662,1522.13
1575319713.429309,1526.48
1575319713.4411469,1530.28
1575319713.449465,1532.22
1575319713.457419,1533.74
1575319713.465727,1536.98
1575319713.47874,1541.03
1575319713.486186,1543.4
1575319713.495712,1543.7
1575319713.506887,1540.98
1575319713.516512,1536.58
1575319713.523125,1532.79
1575319713.531175,1528.54
1575319713.544346,1525.06
1575319713.551637,1522.44
1575319713.559988,1518.94
1575319713.572253,1515.51
1575319713.5803862,1512.2
1575319713.58867,1506.28
1575319713.597177,1499.3
1575319713.6092002,1494.57
1575319713.617043,1491.05
1575319713.625546,1489.43
1575319713.6376362,1488.24
1575319713.646764,1485.94
1575319713.654231,1482.87
1575319713.663148,1480.76
1575319713.674686,1479.46
1575319713.6826801,1479.72
1575319713.691224,1480.95
1575319713.703388,1482.96
1575319713.711982,1484.34
1575319713.719635,1484.36
1575319713.7284951,1483.77
1575319713.740048,1484.52
1575319713.748325,1487.5
1575319713.7563589,1490.82
1575319713.76877,1493.87
1575319713.777142,1493.99
1575319713.785085,1491.82
1575319713.794762,1487.67
1575319713.805828,1483.52
1575319713.814573,1480.91
1575319713.8220448,1479.08
1575319713.8342028,1480.91
1575319713.842693,1485.32
1575319713.8506188,1491.11
1575319713.859018,1493.68
1575319713.871339,1493.36
1575319713.880109,1491.7
1575319713.887719,1491.52
1575319713.899657,1494.44
1575319713.908028,1501.91
1575319713.916149,1510.7
1575319713.924643,1517.79
1575319713.936836,1526.84
1575319713.945567,1534.86
1575319713.953177,1540.29
1575319713.965363,1545.49
1575319713.973888,1547.0
1575319713.982272,1544.05
1575319713.990133,1539.0
1575319714.002336,1530.48
1575319714.0107672,1522.18
1575319714.018595,1516.76
1575319714.031455,1511.7
1575319714.0393019,1508.25
1575319714.0481532,1506.76
1575319714.0556428,1506.02
1575319714.0678358,1507.15
1575319714.076184,1509.32
1575319714.084144,1512.56
1575319714.097945,1515.38
1575319714.104785,1516.01
1575319714.113313,1515.6
1575319714.121231,1515.69
1575319714.133427,1517.03
1575319714.141598,1518.53
1575319714.149601,1517.31
1575319714.162518,1515.83
1575319714.17033,1516.02
1575319714.179252,1519.72
1575319714.186715,1524.49
1575319714.198852,1531.44
1575319714.207076,1537.12
1575319714.215143,1538.36
1575319714.228957,1537.43
1575319714.235641,1537.97
1575319714.244877,1544.53
1575319714.252264,1554.55
1575319714.264236,1567.3
1575319714.272852,1572.01
1575319714.282551,1569.76
1575319714.294245,1565.9
1575319714.301291,1566.72
1575319714.309454,1570.02
1575319714.317682,1573.87
1575319714.3307562,1576.21
1575319714.3382988,1577.7
1575319714.3469498,1579.85
1575319714.3588722,1580.96
1575319714.3667169,1578.74
1575319714.375235,1571.84
1575319714.383042,1562.54
1575319714.395969,1555.39
1575319714.403786,1548.39
1575319714.412656,1543.8
1575319714.424294,1541.43
1575319714.4321659,1538.8
1575319714.440765,1536.79
1575319714.4488971,1536.95
1575319714.461538,1538.53
1575319714.469333,1539.94
1575319714.4780421,1537.58
1575319714.4900212,1532.81
1575319714.498431,1526.55
1575319714.5061529,1522.16
1575319714.514425,1521.28
1575319714.526633,1523.04
1575319714.534815,1523.98
1575319714.5429251,1522.87
1575319714.5550861,1519.51
1575319714.564173,1514.96
1575319714.5715241,1510.54
1575319714.5824351,1504.26
1575319714.592274,1496.37
1575319714.6003242,1489.58
1575319714.6088278,1482.39
1575319714.620866,1477.18
1575319714.629778,1474.62
1575319714.637321,1474.16
1575319714.6461,1476.36
1575319714.657689,1479.58
1575319714.665916,1484.71
1575319714.674338,1490.6
1575319714.686222,1499.01
1575319714.6962361,1511.65
1575319714.7029078,1541.41
1575319714.71174,1591.19
1575319714.723083,1645.3
1575319714.731262,1726.95
1575319714.739514,1818.38
1575319714.751689,1895.11
1575319714.761041,1993.0
1575319714.768346,2090.0
1575319714.776648,2165.55
1575319714.788793,2256.16
1575319714.797299,2340.74
1575319714.805302,2402.01
1575319714.8172271,2467.17
1575319714.825641,2519.15
1575319714.833664,2553.37
1575319714.8423302,2590.69
1575319714.854342,2624.96
1575319714.863484,2650.56
1575319714.8707688,2678.93
1575319714.88275,2700.98
1575319714.8911119,2713.58
1575319714.899173,2723.55
1575319714.9075258,2728.36
1575319714.919848,2727.71
1575319714.928483,2723.04
1575319714.936312,2713.63
1575319714.94841,2703.64
1575319714.956827,2696.4
1575319714.965313,2688.28
1575319714.973236,2679.27
1575319714.985216,2670.14
1575319714.994666,2655.39
1575319715.001726,2637.39
1575319715.0146172,2622.1
1575319715.022366,2602.92
1575319715.030873,2582.67
1575319715.03864,2565.72
1575319715.0508008,2544.96
1575319715.059277,2525.28
1575319715.06723,2509.79
1575319715.080084,2490.77
1575319715.087842,2472.75
1575319715.096716,2459.36
1575319715.104279,2444.46
1575319715.116194,2430.42
1575319715.124741,2418.5
1575319715.13263,2402.81
1575319715.146056,2386.87
1575319715.153437,2370.66
1575319715.162312,2357.71
1575319715.169801,2343.38
1575319715.181788,2329.44
1575319715.190333,2312.74
1575319715.1999319,2274.32
1575319715.211752,2208.12
1575319715.218934,2133.67
1575319715.227623,2017.44
1575319715.2350981,1882.41
1575319715.247295,1766.3
1575319715.255831,1616.71
1575319715.264447,1467.71
1575319715.276167,1353.51
1575319715.28422,1222.17
1575319715.295985,1107.79
1575319715.300521,1031.72
1575319715.309175,957.48
1575319715.316952,913.93
1575319715.329994,881.75
1575319715.337652,853.32
1575319715.34621,836.92
1575319715.354032,824.26
1575319715.36264,814.63
1575319715.370409,807.46
1575319715.378898,802.36
1575319715.386652,798.19
1575319715.395753,796.82
1575319715.403222,797.71
1575319715.412533,800.43
1575319715.419528,804.69
1575319715.4283369,810.71
1575319715.436001,818.15
1575319715.44515,829.23
1575319715.452351,839.5
1575319715.461395,850.8
1575319715.4686332,863.01
1575319715.477483,876.06
1575319715.485087,889.38
1575319715.493522,903.97
1575319715.501376,911.1
1575319715.5096152,913.27
1575319715.5178492,911.69
1575319715.526113,908.81
1575319715.534126,907.65
1575319715.542644,909.95
1575319715.550493,913.98
1575319715.5589278,919.29
1575319715.5667782,925.08
1575319715.575509,931.11
1575319715.583274,937.41
1575319715.5962949,945.22
1575319715.603897,951.54
1575319715.612479,957.68
1575319715.620349,963.73
1575319715.629171,969.76
1575319715.636548,975.72
1575319715.6458921,981.62
1575319715.6530051,989.16
1575319715.6618319,995.01
1575319715.669415,1000.83
1575319715.678887,1008.65
1575319715.690132,1016.19
1575319715.698336,1027.23
1575319715.7064059,1039.87
1575319715.714518,1050.23
1575319715.726631,1062.02
1575319715.734726,1073.8
1575319715.743065,1085.36
1575319715.755319,1103.41
1575319715.763982,1122.56
1575319715.771931,1136.66
1575319715.780909,1150.99
1575319715.7925131,1161.97
1575319715.8003762,1169.52
1575319715.808706,1178.25
1575319715.820836,1186.28
1575319715.829526,1194.46
1575319715.83743,1201.31
1575319715.845778,1209.25
1575319715.8578482,1214.81
1575319715.865828,1217.71
1575319715.8742652,1221.28
1575319715.886313,1225.35
1575319715.895999,1229.19
1575319715.9028869,1235.22
1575319715.912519,1242.2
1575319715.923479,1248.41
1575319715.931819,1255.83
1575319715.939902,1261.94
1575319715.9518669,1266.27
1575319715.961459,1271.79
1575319715.9683578,1277.38
1575319715.977134,1281.64
1575319715.98911,1285.8
1575319715.997605,1287.98
1575319716.005457,1288.69
1575319716.0173361,1288.87
1575319716.025791,1289.51
1575319716.033779,1291.52
1575319716.042274,1296.09
1575319716.054513,1302.14
1575319716.0631769,1309.03
1575319716.070963,1315.32
1575319716.082905,1324.46
1575319716.09142,1332.57
1575319716.099265,1335.52
1575319716.107986,1333.64
1575319716.119966,1329.05
1575319716.128839,1327.62
1575319716.136471,1330.22
1575319716.148478,1334.31
1575319716.156975,1336.64
1575319716.16508,1337.16
1575319716.173383,1333.68
1575319716.185508,1328.01
1575319716.194788,1320.0
1575319716.202158,1313.23
1575319716.214071,1308.24
1575319716.222395,1301.82
1575319716.231114,1296.37
1575319716.238718,1294.09
1575319716.250926,1292.04
1575319716.2591271,1288.06
1575319716.267456,1284.98
1575319716.280965,1285.19
1575319716.287961,1290.08
1575319716.296582,1296.83
1575319716.3045042,1301.82
1575319716.3163478,1305.28
1575319716.3247948,1306.25
1575319716.332812,1307.66
1575319716.345839,1311.7
1575319716.3534982,1318.48
1575319716.362236,1326.52
1575319716.369904,1338.08
1575319716.381933,1344.71
1575319716.3905568,1344.9
1575319716.3985019,1344.97
1575319716.411982,1350.71
1575319716.418776,1357.51
1575319716.4281092,1364.05
1575319716.435256,1368.27
1575319716.4474628,1371.48
1575319716.455925,1375.24
1575319716.465274,1378.78
1575319716.4763231,1382.0
1575319716.484334,1384.8
1575319716.492745,1383.37
1575319716.500767,1379.74
1575319716.514594,1375.77
1575319716.521466,1376.24
1575319716.530227,1381.63
1575319716.541962,1388.06
1575319716.5498319,1395.05
1575319716.5584698,1399.27
1575319716.5662642,1401.17
1575319716.5795279,1403.33
1575319716.587103,1408.33
1575319716.595885,1416.83
1575319716.607742,1432.95
1575319716.615808,1450.41
1575319716.624023,1461.89
1575319716.631795,1471.37
1575319716.645143,1476.48
1575319716.652407,1479.49
1575319716.66193,1484.52
1575319716.6730518,1492.48
1575319716.681505,1499.83
1575319716.689502,1505.64
1575319716.698904,1504.84
1575319716.7107682,1501.4
1575319716.718007,1497.54
1575319716.726277,1496.2
1575319716.738351,1496.4
1575319716.747262,1497.61
1575319716.754781,1498.82
1575319716.7634728,1496.93
1575319716.775386,1492.46
1575319716.783473,1485.19
1575319716.791726,1478.27
1575319716.803894,1473.22
1575319716.812949,1467.33
1575319716.8204958,1463.31
1575319716.829399,1462.24
1575319716.840988,1463.32
1575319716.8489401,1465.75
1575319716.857592,1467.52
1575319716.869319,1468.71
1575319716.878516,1470.37
1575319716.8860319,1472.63
1575319716.894357,1475.58
1575319716.906446,1476.87
1575319716.914617,1476.37
1575319716.922967,1475.87
1575319716.9348538,1476.69
1575319716.943468,1477.74
1575319716.951351,1477.65
1575319716.959648,1474.99
1575319716.972043,1471.99
1575319716.981378,1469.17
1575319716.9882329,1468.38
1575319717.000669,1467.35
1575319717.008988,1464.94
1575319717.016941,1460.85
1575319717.025337,1458.19
1575319717.037506,1458.0
1575319717.046581,1458.44
1575319717.053972,1459.2
1575319717.066006,1460.79
1575319717.074441,1463.9
1575319717.082439,1466.86
1575319717.090945,1467.68
1575319717.102998,1470.09
1575319717.1124249,1481.97
1575319717.1194198,1503.28
1575319717.132051,1547.77
1575319717.139929,1610.38
1575319717.14785,1670.3
1575319717.1565309,1752.81
1575319717.168342,1841.03
1575319717.176765,1914.47
1575319717.1848462,2005.73
1575319717.199233,2093.59
1575319717.205423,2160.61
1575319717.2144709,2238.11
1575319717.2216902,2306.34
1575319717.233881,2364.91
1575319717.24234,2406.61
1575319717.250318,2455.01
1575319717.26326,2499.41
1575319717.271042,2531.66
1575319717.279747,2565.7
1575319717.2874491,2590.24
1575319717.299457,2603.14
1575319717.307907,2614.79
1575319717.316109,2624.49
1575319717.329279,2630.89
1575319717.336412,2636.72
1575319717.345341,2638.76
1575319717.352963,2636.64
1575319717.3649762,2629.16
1575319717.3735309,2619.06
1575319717.38259,2612.3
1575319717.3946931,2606.75
1575319717.402074,2602.3
1575319717.4106612,2596.83
1575319717.418449,2585.35
1575319717.430932,2568.95
1575319717.43902,2553.09
1575319717.448107,2532.09
1575319717.459299,2511.91
1575319717.4674602,2492.06
1575319717.4758341,2476.54
1575319717.4838002,2458.71
1575319717.496811,2441.06
1575319717.504488,2425.89
1575319717.513398,2405.27
1575319717.5248902,2383.85
1575319717.53343,2367.25
1575319717.541433,2348.95
1575319717.54929,2332.43
1575319717.562614,2319.41
1575319717.569964,2302.68
1575319717.579169,2283.98
1575319717.5906801,2267.96
1575319717.5985768,2248.76
1575319717.606987,2231.38
1575319717.6154099,2218.58
1575319717.62797,2203.99
1575319717.6355882,2190.67
1575319717.644404,2179.56
1575319717.656109,2163.07
1575319717.664396,2142.92
1575319717.672531,2126.09
1575319717.681472,2106.43
1575319717.6928508,2090.53
1575319717.700871,2078.47
1575319717.710123,2070.0
1575319717.721295,2058.7
1575319717.730565,2047.39
1575319717.737866,2039.57
1575319717.7470012,2029.95
1575319717.758411,2017.76
1575319717.766366,2006.19
1575319717.77484,1992.94
1575319717.78689,1984.49
1575319717.795912,1980.91
1575319717.803544,1977.05
1575319717.812313,1969.32
1575319717.8241532,1954.71
1575319717.8321762,1916.19
1575319717.8403761,1848.68
1575319717.852513,1773.52
1575319717.8611,1657.59
1575319717.8689332,1525.14
1575319717.878046,1412.31
1575319717.889576,1267.11
1575319717.898088,1122.05
1575319717.905966,1009.92
1575319717.914475,881.04
1575319717.9223208,793.64
1575319717.930819,723.28
1575319717.938802,658.69
1575319717.947804,621.65
1575319717.9551082,592.77
1575319717.963732,568.38
1575319717.975623,548.01
1575319717.983532,532.88
1575319717.991897,524.48
1575319718.0000188,526.41
1575319718.008328,533.99
1575319718.0162199,543.78
1575319718.0245602,553.86
1575319718.032629,563.42
1575319718.0411,574.59
1575319718.049073,582.73
1575319718.057534,591.1
1575319718.0655239,601.2
1575319718.074014,614.05
1575319718.0821388,629.7
1575319718.0903208,651.93
1575319718.098397,669.9
1575319718.1067038,687.12
1575319718.115944,703.09
1575319718.122984,717.39
1575319718.130947,729.78
1575319718.139501,740.34
1575319718.148133,753.58
1575319718.1558971,767.39
1575319718.164264,786.52
1575319718.17228,811.45
1575319718.181129,840.49
1575319718.188589,870.01
1575319718.197092,902.23
1575319718.205003,922.69
1575319718.21353,938.68
1575319718.2212522,951.82
1575319718.2333,963.35
1575319718.24168,974.54
1575319718.249692,988.79
1575319718.258215,1000.66
1575319718.266212,1012.75
1575319718.274474,1027.21
1575319718.286836,1039.78
1575319718.296085,1048.24
1575319718.303194,1056.96
1575319718.315291,1064.77
1575319718.323798,1071.79
1575319718.332067,1082.63
1575319718.3402,1095.61
1575319718.3523252,1108.39
1575319718.360662,1116.45
1575319718.368625,1124.32
1575319718.38127,1132.32
1575319718.38932,1139.73
1575319718.398283,1150.26
1575319718.405726,1161.69
1575319718.417656,1171.57
1575319718.426189,1183.96
1575319718.434191,1193.44
1575319718.446879,1197.53
1575319718.454869,1199.79
1575319718.463347,1202.33
1575319718.47123,1205.91
1575319718.4831822,1211.5
1575319718.4918342,1218.23
1575319718.4997702,1224.86
1575319718.5124109,1234.62
1575319718.5203142,1245.21
1575319718.5295842,1253.5
1575319718.5366778,1262.88
1575319718.548671,1270.35
1575319718.5572858,1274.95
1575319718.565282,1279.65
1575319718.578656,1283.58
1575319718.585662,1286.19
1575319718.594639,1288.58
1575319718.6022022,1293.38
1575319718.614639,1299.65
1575319718.6227999,1304.22
1575319718.631765,1308.7
1575319718.643144,1312.46
1575319718.651135,1316.02
1575319718.659668,1322.17
1575319718.667645,1328.69
1575319718.6798248,1332.83
1575319718.688133,1336.32
1575319718.6970391,1338.78
1575319718.709436,1340.78
1575319718.716715,1343.41
1575319718.724959,1346.83
1575319718.733082,1350.76
1575319718.7465012,1357.29
1575319718.753658,1365.36
1575319718.762697,1371.69
1575319718.774498,1376.97
1575319718.78286,1378.66
1575319718.7907698,1378.83
1575319718.798593,1379.47
1575319718.812186,1381.68
1575319718.819353,1383.75
1575319718.8285508,1384.14
1575319718.839998,1380.97
1575319718.848353,1374.55
1575319718.856297,1369.03
1575319718.865152,1363.76
1575319718.876595,1362.28
1575319718.884662,1363.82
1575319718.8955772,1366.99
1575319718.905466,1366.88
1575319718.9138281,1362.02
1575319718.921837,1351.05
1575319718.930762,1339.6
1575319718.9423208,1333.65
1575319718.950221,1330.92
1575319718.9586198,1330.93
1575319718.970655,1330.83
1575319718.979691,1330.24
1575319718.987304,1329.89
1575319718.9963698,1330.16
1575319719.007797,1331.72
1575319719.015847,1333.29
1575319719.0243578,1333.77
1575319719.0363572,1333.44
1575319719.044686,1333.72
1575319719.0527139,1336.44
1575319719.061801,1340.15
1575319719.0733361,1345.59
1575319719.081804,1351.42
1575319719.089764,1356.57
1575319719.101804,1362.27
1575319719.110355,1364.7
1575319719.118191,1364.76
1575319719.126535,1364.53
1575319719.1388218,1364.93
1575319719.1474528,1365.05
1575319719.155255,1365.01
1575319719.1672618,1366.04
1575319719.175733,1368.51
1575319719.183588,1372.78
1575319719.192001,1376.43
1575319719.2044559,1377.75
1575319719.2132092,1377.85
1575319719.2208169,1378.03
1575319719.232748,1379.58
1575319719.2411,1384.47
1575319719.249459,1393.23
1575319719.2575612,1402.23
1575319719.269691,1413.33
1575319719.278892,1421.01
1575319719.286159,1424.66
1575319719.2982872,1425.98
1575319719.306845,1427.17
1575319719.3154418,1429.1
1575319719.323155,1431.11
1575319719.3354182,1435.5
1575319719.343694,1448.25
1575319719.351948,1470.48
1575319719.364022,1518.41
1575319719.372389,1587.39
1575319719.381354,1653.45
1575319719.3887842,1743.55
1575319719.400755,1836.03
1575319719.4093041,1907.6
1575319719.417312,1992.62
1575319719.429954,2073.67
1575319719.43787,2136.37
1575319719.446632,2212.54
1575319719.454255,2284.96
1575319719.4662578,2337.98
1575319719.474705,2395.58
1575319719.482668,2441.54
1575319719.495967,2469.55
1575319719.50316,2494.97
1575319719.5120661,2512.5
1575319719.5198069,2526.11
1575319719.531841,2536.09
1575319719.540319,2547.49
1575319719.548737,2556.34
1575319719.561337,2561.89
1575319719.5687628,2568.1
1575319719.577825,2573.55
1575319719.585268,2576.8
1575319719.5975611,2578.4
1575319719.605875,2578.13
1575319719.6147,2577.45
1575319719.626313,2574.73
1575319719.634356,2567.73
1575319719.642626,2557.45
1575319719.6506581,2538.93
1575319719.663523,2516.0
1575319719.671333,2496.23
1575319719.67994,2470.87
1575319719.6917639,2445.53
1575319719.699907,2426.04
1575319719.7080371,2403.91
1575319719.716158,2384.69
1575319719.729044,2371.49
1575319719.7367182,2356.28
1575319719.7461429,2340.6
1575319719.757312,2324.38
1575319719.765423,2310.98
1575319719.773812,2293.81
1575319719.782997,2276.29
1575319719.7953331,2261.89
1575319719.8023481,2242.95
1575319719.810621,2224.3
1575319719.822839,2210.5
1575319719.831795,2194.82
1575319719.839301,2179.4
1575319719.847695,2166.24
1575319719.8597481,2148.19
1575319719.867774,2128.84
1575319719.8760982,2113.46
1575319719.888248,2096.22
1575319719.897326,2082.18
1575319719.90482,2073.1
1575319719.913481,2063.91
1575319719.9253278,2054.39
1575319719.9334662,2040.67
1575319719.9415638,2005.47
1575319719.953778,1941.16
1575319719.962775,1867.06
1575319719.970418,1751.05
1575319719.9790132,1617.28
1575319719.990973,1472.56
1575319719.999692,1351.89
1575319720.0071669,1199.81
1575319720.019326,1053.02
1575319720.02803,944.72
1575319720.0356429,848.46
1575319720.0447218,749.22
1575319720.052126,687.95
1575319720.060483,641.89
1575319720.068417,609.77
1575319720.076711,588.82
1575319720.084975,575.97
1575319720.093257,566.89
1575319720.1012201,562.92
1575319720.109714,561.0
1575319720.1175559,560.65
1575319720.125955,562.59
1575319720.133894,567.28
1575319720.1423712,574.98
1575319720.1503181,587.04
1575319720.158893,597.27
1575319720.166763,607.17
1575319720.175262,617.42
1575319720.18314,628.98
1575319720.1914592,641.75
1575319720.199463,657.84
1575319720.208003,670.01
1575319720.215977,680.89
1575319720.22443,691.42
1575319720.2322419,702.79
1575319720.2405372,716.05
1575319720.24879,736.26
1575319720.2569401,756.09
1575319720.2651122,779.74
1575319720.2735481,805.59
1575319720.285504,831.01
1575319720.295142,853.79
1575319720.3019469,878.35
1575319720.310236,896.16
1575319720.318244,913.05
1575319720.3266041,929.2
1575319720.334583,943.82
1575319720.3430882,956.11
1575319720.35107,966.01
1575319720.3594172,975.42
1575319720.367371,981.53
1575319720.37599,987.11
1575319720.3838332,992.45
1575319720.392415,997.94
1575319720.4002318,1004.88
1575319720.4086888,1016.14
1575319720.420919,1029.09
1575319720.429346,1038.65
1575319720.437321,1047.99
1575319720.449294,1054.82
1575319720.4579892,1060.95
1575319720.46624,1067.4
1575319720.474425,1080.17
1575319720.48632,1097.56
1575319720.4959722,1112.66
1575319720.502798,1130.61
1575319720.5149992,1145.39
1575319720.523385,1153.54
1575319720.5326211,1158.27
1575319720.5396512,1159.03
1575319720.551915,1160.39
1575319720.560255,1165.56
1575319720.568258,1173.66
1575319720.580837,1180.66
1575319720.588925,1187.65
1575319720.5977721,1191.68
1575319720.605259,1193.36
1575319720.617375,1195.21
1575319720.6258628,1199.42
1575319720.6337988,1205.64
1575319720.646797,1216.63
1575319720.654433,1231.11
1575319720.662909,1244.52
1575319720.670783,1261.4
1575319720.682816,1276.42
1575319720.691327,1287.61
1575319720.699214,1292.97
1575319720.712407,1296.09
1575319720.719871,1298.38
1575319720.72912,1301.78
1575319720.736088,1308.48
1575319720.74848,1315.35
1575319720.756633,1318.9
1575319720.765326,1320.22
1575319720.777264,1319.92
1575319720.7853298,1319.76
1575319720.793605,1321.09
1575319720.8018072,1326.17
1575319720.814545,1333.12
1575319720.822412,1343.22
1575319720.831038,1351.44
1575319720.8426838,1355.53
1575319720.85086,1358.12
1575319720.8593469,1359.63
1575319720.867245,1361.34
1575319720.880123,1364.67
1575319720.887927,1368.99
1575319720.8966231,1372.54
1575319720.908366,1376.73
1575319720.916317,1379.86
1575319720.92466,1381.2
1575319720.932673,1381.73
1575319720.945917,1383.58
1575319720.9533231,1388.53
1575319720.9619021,1394.51
1575319720.973925,1402.99
1575319720.981861,1411.09
1575319720.99047,1417.12
1575319720.998275,1424.65
1575319721.0108101,1432.26
1575319721.018754,1437.78
1575319721.028159,1442.06
1575319721.039573,1442.4
1575319721.0479958,1441.17
1575319721.055825,1440.77
1575319721.0643892,1442.87
1575319721.076334,1445.96
1575319721.084357,1449.9
1575319721.096456,1452.03
1575319721.104933,1452.6
1575319721.1137679,1453.22
1575319721.1214368,1455.31
1575319721.129996,1457.85
1575319721.141814,1460.86
1575319721.149944,1462.99
1575319721.158237,1464.12
1575319721.1702158,1464.5
1575319721.180127,1464.43
1575319721.186837,1464.95
1575319721.19593,1465.89
1575319721.207638,1467.26
1575319721.2170198,1468.11
1575319721.223627,1468.66
1575319721.235822,1469.63
1575319721.244846,1470.65
1575319721.2522292,1472.13
1575319721.261183,1475.85
1575319721.272897,1482.0
1575319721.281333,1488.11
1575319721.2894661,1495.3
1575319721.3013551,1500.58
1575319721.309727,1502.99
1575319721.3176808,1504.17
1575319721.3263412,1504.65
1575319721.338391,1505.41
1575319721.346945,1507.33
1575319721.35491,1509.52
1575319721.3669891,1510.71
1575319721.375158,1510.12
1575319721.383272,1506.68
1575319721.39171,1501.49
1575319721.403877,1497.47
1575319721.4125812,1493.7
1575319721.4204469,1491.56
1575319721.432393,1490.53
1575319721.440902,1489.35
1575319721.449024,1489.72
1575319721.4572642,1492.46
1575319721.469218,1499.47
1575319721.478977,1507.91
1575319721.4858391,1512.71
1575319721.4993868,1514.5
1575319721.506391,1516.06
1575319721.5144908,1524.03
1575319721.5228622,1549.42
1575319721.5348768,1594.03
1575319721.5431879,1641.66
1575319721.5513742,1710.04
1575319721.564229,1783.0
1575319721.571862,1842.5
1575319721.580569,1917.48
1575319721.588406,1992.69
1575319721.600439,2051.76
1575319721.6086872,2120.7
1575319721.616694,2182.48
1575319721.6299431,2237.56
1575319721.6373708,2276.87
1575319721.6460989,2321.33
1575319721.653903,2362.05
1575319721.665778,2392.29
1575319721.674459,2426.46
1575319721.682245,2455.97
1575319721.696617,2476.37
1575319721.7029178,2497.35
1575319721.712492,2513.72
1575319721.7192252,2524.24
1575319721.731568,2534.84
1575319721.739699,2543.51
1575319721.749012,2549.6
1575319721.760115,2556.98
1575319721.768341,2564.28
1575319721.7765892,2569.52
1575319721.784857,2574.3
1575319721.797487,2575.69
1575319721.805495,2573.84
1575319721.814728,2568.27
1575319721.825817,2560.45
1575319721.833787,2553.69
1575319721.8423092,2544.66
1575319721.850174,2534.71
1575319721.8632178,2524.26
1575319721.870958,2515.66
1575319721.879661,2503.79
1575319721.891469,2489.5
1575319721.8994298,2475.97
1575319721.908054,2457.46
1575319721.916069,2438.0
1575319721.928952,2421.96
1575319721.936327,2401.6
1575319721.9454138,2381.7
1575319721.9571,2366.96
1575319721.965324,2349.6
1575319721.9733,2333.19
1575319721.981353,2320.3
1575319721.993802,2303.12
1575319722.001886,2284.69
1575319722.0101042,2269.06
1575319722.0223172,2249.08
1575319722.031081,2229.05
1575319722.038885,2213.12
1575319722.047515,2192.82
1575319722.059508,2172.03
1575319722.06739,2155.72
1575319722.075902,2137.27
1575319722.0877519,2121.69
1575319722.0967581,2108.73
1575319722.104435,2100.07
1575319722.112842,2090.54
1575319722.124691,2081.15
1575319722.1328452,2073.76
1575319722.141458,2064.25
1575319722.1533911,2048.56
1575319722.1620889,2024.06
1575319722.169842,1970.44
1575319722.1794848,1887.9
1575319722.190442,1803.2
1575319722.198988,1679.31
1575319722.206893,1542.37
1575319722.218838,1427.47
1575319722.228692,1280.75
1575319722.235456,1134.48
1575319722.24354,1021.97
1575319722.251605,895.37
1575319722.259914,811.85
1575319722.272206,747.31
1575319722.280876,691.86
1575319722.288741,662.89
1575319722.2979589,642.72
1575319722.3049788,628.29
1575319722.313504,617.98
1575319722.3215308,611.76
1575319722.33041,610.12
1575319722.337686,613.25
1575319722.346604,619.4
1575319722.354176,627.36
1575319722.36274,636.28
1575319722.3707259,645.91
1575319722.3795352,656.22
1575319722.3869739,669.35
1575319722.395958,679.76
1575319722.403428,690.06
1575319722.4130151,700.4
1575319722.419565,710.31
1575319722.4284549,719.38
1575319722.436115,729.32
1575319722.444414,736.27
1575319722.452336,742.65
1575319722.461865,749.1
1575319722.468755,756.58
1575319722.4771452,765.9
1575319722.4850528,779.88
1575319722.493421,791.28
1575319722.501556,802.59
1575319722.51002,815.82
1575319722.517963,833.1
1575319722.531019,854.35
1575319722.538547,882.88
1575319722.546588,903.69
1575319722.555018,921.56
1575319722.563801,936.45
1575319722.571344,949.38
1575319722.579958,961.94
1575319722.587768,974.96
1575319722.597033,992.36
1575319722.6038918,1006.65
1575319722.61268,1020.16
1575319722.6247418,1035.74
1575319722.632533,1049.85
1575319722.6412642,1062.65
1575319722.649524,1072.74
1575319722.662006,1085.47
1575319722.669709,1097.13
1575319722.678569,1104.52
1575319722.690198,1110.45
1575319722.698656,1115.4
1575319722.7066061,1121.34
1575319722.715672,1131.64
1575319722.7280471,1143.92
1575319722.735301,1153.71
1575319722.743381,1164.61
1575319722.755415,1173.83
1575319722.7645109,1180.12
1575319722.772059,1186.35
1575319722.780674,1190.69
1575319722.79256,1192.76
1575319722.800508,1195.19
1575319722.809044,1198.77
1575319722.8209128,1203.61
1575319722.829946,1212.92
1575319722.837599,1224.39
1575319722.846306,1233.38
1575319722.858117,1242.5
1575319722.865988,1249.34
1575319722.8747442,1254.64
1575319722.886624,1258.43
1575319722.895692,1263.72
1575319722.903082,1269.82
1575319722.912837,1274.16
1575319722.92368,1277.43
1575319722.93203,1278.4
1575319722.940076,1279.26
1575319722.952178,1281.89
1575319722.960534,1286.14
1575319722.968574,1290.43
1575319722.9768598,1297.27
1575319722.989235,1304.51
1575319722.9978912,1309.2
1575319723.005552,1313.36
1575319723.017526,1316.62
1575319723.026143,1319.66
1575319723.034055,1325.68
1575319723.0425391,1334.02
1575319723.054633,1340.9
1575319723.063304,1347.82
1575319723.071209,1352.71
1575319723.083126,1355.9
1575319723.091458,1359.09
1575319723.0994802,1362.4
1575319723.108243,1366.18
1575319723.1201558,1369.02
1575319723.1293921,1372.44
1575319723.1363578,1375.72
1575319723.149139,1378.42
1575319723.157148,1382.05
1575319723.165339,1385.62
1575319723.173598,1387.73
1575319723.185531,1389.53
1575319723.194203,1391.9
1575319723.2019572,1395.17
1575319723.214756,1400.29
1575319723.222636,1405.99
1575319723.230919,1410.53
1575319723.239018,1415.84
1575319723.2510211,1420.06
1575319723.259445,1422.66
1575319723.267427,1424.49
1575319723.2801652,1424.62
1575319723.288148,1424.15
1575319723.296795,1424.3
1575319723.3045802,1425.91
1575319723.316538,1427.53
1575319723.324918,1428.77
1575319723.3329742,1429.47
1575319723.346027,1430.44
1575319723.353695,1431.34
1575319723.3625212,1433.01
1575319723.370017,1436.08
1575319723.382097,1439.57
1575319723.3907032,1443.5
1575319723.398717,1445.22
1575319723.4118788,1444.86
1575319723.419177,1443.64
1575319723.428867,1443.87
1575319723.4353988,1446.18
1575319723.4480362,1451.85
1575319723.45593,1459.39
1575319723.464803,1465.85
1575319723.4769018,1473.21
1575319723.484726,1477.18
1575319723.493252,1477.15
1575319723.5009332,1472.8
1575319723.5141602,1464.61
1575319723.521518,1457.07
1575319723.530281,1449.52
1575319723.541961,1447.07
1575319723.550022,1450.21
1575319723.558508,1459.06
1575319723.566428,1471.53
1575319723.579576,1484.29
1575319723.586967,1492.91
1575319723.5959868,1500.93
1575319723.60781,1505.06
1575319723.615673,1505.84
1575319723.6241212,1504.82
1575319723.632409,1502.69
1575319723.645199,1501.6
1575319723.652568,1502.51
1575319723.6614301,1505.78
1575319723.673344,1508.68
1575319723.682008,1509.6
1575319723.689538,1505.69
1575319723.6987379,1500.01
1575319723.709971,1492.5
1575319723.7179751,1486.69
1575319723.726474,1483.56
1575319723.738632,1482.95
1575319723.7475479,1491.33
1575319723.7548711,1510.71
1575319723.764398,1555.22
1575319723.775525,1621.64
1575319723.78354,1687.35
1575319723.792032,1780.71
1575319723.803956,1882.78
1575319723.812887,1989.36
1575319723.820655,2074.88
1575319723.829677,2179.13
1575319723.8413498,2275.88
1575319723.849334,2345.07
1575319723.857599,2419.0
1575319723.869535,2479.6
1575319723.8789089,2520.22
1575319723.8861382,2563.76
1575319723.896996,2601.3
1575319723.90665,2626.94
1575319723.914772,2652.44
1575319723.9231691,2670.36
1575319723.9352489,2680.23
1575319723.943389,2688.12
1575319723.951472,2690.65
1575319723.9600482,2688.39
1575319723.972127,2681.03
1575319723.980661,2670.66
1575319723.98871,2661.71
1575319724.000745,2649.91
1575319724.0089989,2637.4
1575319724.0170538,2626.97
1575319724.025381,2612.88
1575319724.037724,2597.34
1575319724.04655,2580.41
1575319724.054156,2566.26
1575319724.066184,2548.0
1575319724.0747461,2530.38
1575319724.082536,2517.5
1575319724.0911438,2502.82
1575319724.1032279,2486.87
1575319724.112195,2471.35
1575319724.11961,2447.76
1575319724.132,2420.5
1575319724.140081,2397.6
1575319724.149227,2370.94
1575319724.156459,2349.63
1575319724.16874,2336.97
1575319724.177055,2326.08
1575319724.1850162,2319.18
1575319724.197852,2314.21
1575319724.205597,2305.73
1575319724.214137,2291.58
1575319724.222095,2274.93
1575319724.2341208,2248.49
1575319724.2432482,2220.67
1575319724.250514,2201.4
1575319724.263542,2183.75
1575319724.271064,2172.55
1575319724.280166,2165.36
1575319724.2876348,2160.28
1575319724.299573,2152.33
1575319724.3082528,2141.06
1575319724.316187,2129.61
1575319724.3292422,2112.75
1575319724.33671,2093.68
1575319724.345222,2077.81
1575319724.3531678,2059.14
1575319724.36515,2044.08
1575319724.373732,2035.33
1575319724.3822,2027.21
1575319724.394043,2020.01
1575319724.4022012,2013.42
1575319724.41045,2004.22
1575319724.418619,1994.12
1575319724.431354,1985.38
1575319724.439132,1974.36
1575319724.4478889,1964.63
1575319724.459716,1958.6
1575319724.467613,1950.14
1575319724.4759529,1930.6
1575319724.483978,1897.73
1575319724.497128,1827.42
1575319724.504708,1726.18
1575319724.513252,1602.93
1575319724.524976,1496.05
1575319724.533149,1359.09
1575319724.54169,1222.18
1575319724.5496,1114.59
1575319724.5582259,985.4
1575319724.566308,889.66
1575319724.574311,803.79
1575319724.586438,729.44
1575319724.595346,654.79
1575319724.60273,609.9
1575319724.611866,578.0
1575319724.619332,557.86
1575319724.627576,547.38
1575319724.63555,544.93
1575319724.643779,551.09
1575319724.6520672,560.42
1575319724.660367,570.69
1575319724.668253,580.22
1575319724.676599,588.41
1575319724.6847758,595.45
1575319724.6931899,601.53
1575319724.701032,609.83
1575319724.709494,618.52
1575319724.717404,629.13
1575319724.7260559,641.02
1575319724.7338188,653.85
1575319724.742188,667.6
1575319724.750216,685.71
1575319724.758634,700.42
1575319724.766596,715.52
1575319724.7749581,730.16
1575319724.783041,744.47
1575319724.791543,758.58
1575319724.799391,776.01
1575319724.807987,789.76
1575319724.815845,803.23
1575319724.824272,815.73
1575319724.832225,827.47
1575319724.844585,839.67
1575319724.852608,856.72
1575319724.860995,870.87
1575319724.869046,884.57
1575319724.877874,897.85
1575319724.8855228,910.52
1575319724.893943,922.44
1575319724.901918,934.01
1575319724.9100642,948.2
1575319724.918345,959.57
1575319724.9265,970.99
1575319724.934603,982.18
1575319724.943089,992.8
1575319724.951005,1003.0
1575319724.95952,1016.46
1575319724.971458,1031.4
1575319724.980395,1044.37
1575319724.987942,1060.5
1575319725.000105,1075.01
1575319725.008499,1087.22
1575319725.0170019,1095.68
1575319725.024888,1104.2
1575319725.037159,1109.68
1575319725.0456908,1112.17
1575319725.053633,1115.07
1575319725.065645,1120.86
1575319725.074084,1128.6
1575319725.08206,1140.72
1575319725.090461,1152.23
1575319725.1026418,1159.62
1575319725.111435,1167.14
1575319725.1189618,1174.42
1575319725.131464,1180.19
1575319725.139562,1186.78
1575319725.1481888,1191.88
1575319725.1559622,1195.59
1575319725.167991,1200.19
1575319725.1765451,1204.48
1575319725.184553,1208.02
1575319725.197304,1213.38
1575319725.205027,1220.89
1575319725.2136362,1228.13
1575319725.221589,1237.97
1575319725.233595,1249.14
1575319725.241796,1261.06
1575319725.2499242,1269.88
1575319725.262809,1279.01
1575319725.2704499,1285.26
1575319725.2794318,1288.32
1575319725.287084,1290.5
1575319725.29907,1291.05
1575319725.3075762,1291.26
1575319725.315509,1292.89
1575319725.328655,1297.74
1575319725.336066,1304.0
1575319725.345419,1313.69
1575319725.3525708,1325.38
1575319725.364661,1335.4
1575319725.373066,1347.01
1575319725.3814359,1356.58
1575319725.39345,1363.19
1575319725.4014819,1371.23
1575319725.410035,1378.47
1575319725.417901,1383.24
1575319725.430739,1387.03
1575319725.4386728,1388.11
1575319725.4472268,1387.33
1575319725.45904,1385.18
1575319725.467032,1382.77
1575319725.475538,1382.01
1575319725.483402,1383.71
1575319725.496602,1389.01
1575319725.5041542,1395.91
1575319725.513196,1400.72
1575319725.5249002,1403.64
1575319725.532604,1404.28
1575319725.541187,1408.98
1575319725.549525,1429.3
1575319725.562204,1472.78
1575319725.56962,1523.98
1575319725.578586,1603.48
1575319725.590212,1694.32
1575319725.598291,1771.29
1575319725.606635,1869.36
1575319725.615469,1966.34
1575319725.626833,2041.54
1575319725.635189,2131.91
1575319725.643426,2218.44
1575319725.655523,2284.01
1575319725.6642509,2358.77
1575319725.672111,2423.89
1575319725.680516,2467.88
1575319725.692841,2512.37
1575319725.700553,2546.46
1575319725.708789,2572.27
1575319725.7211552,2587.01
1575319725.729841,2597.88
1575319725.737886,2602.13
1575319725.746372,2602.95
1575319725.757934,2603.16
1575319725.7660081,2602.31
1575319725.7744179,2599.52
1575319725.78653,2591.6
1575319725.795723,2578.94
1575319725.8029819,2567.57
1575319725.812277,2555.34
1575319725.823582,2547.86
1575319725.831692,2544.93
1575319725.840186,2540.96
1575319725.852093,2533.59
1575319725.8605518,2524.69
1575319725.868587,2509.7
1575319725.876917,2491.83
1575319725.88915,2477.32
1575319725.897851,2459.88
1575319725.905468,2442.13
1575319725.9175549,2426.62
1575319725.926218,2406.33
1575319725.934156,2386.57
1575319725.942538,2367.37
1575319725.954487,2351.83
1575319725.963588,2331.77
1575319725.971116,2312.07
1575319725.9831629,2297.4
1575319725.9915771,2280.54
1575319725.999495,2264.95
1575319726.0082319,2253.76
1575319726.0199769,2241.76
1575319726.028987,2230.36
1575319726.0365481,2219.94
1575319726.048757,2204.48
1575319726.057101,2185.32
1575319726.0658188,2167.83
1575319726.073577,2145.88
1575319726.08569,2126.76
1575319726.096673,2111.93
1575319726.10198,2085.58
1575319726.1144671,2039.06
1575319726.122716,1982.95
1575319726.131624,1889.92
1575319726.139074,1776.78
1575319726.1510952,1676.32
1575319726.159462,1543.68
1575319726.167558,1408.0
1575319726.1801631,1273.65
1575319726.188067,1170.66
1575319726.196873,1052.37
1575319726.20461,949.64
1575319726.213847,880.78
1575319726.22094,824.71
1575319726.231663,781.0
1575319726.237313,749.38
1575319726.24636,728.71
1575319726.253542,714.65
1575319726.26274,708.17
1575319726.269891,703.17
1575319726.278752,698.11
1575319726.286237,693.7
1575319726.29868,690.62
1575319726.307009,689.53
1575319726.316239,690.7
1575319726.3234072,693.63
1575319726.331445,697.9
1575319726.339721,702.95
1575319726.348352,708.46
1575319726.356202,714.74
1575319726.364717,723.73
1575319726.372565,731.83
1575319726.381265,739.99
1575319726.388979,746.49
1575319726.397685,749.58
1575319726.405074,749.19
1575319726.4139059,746.89
1575319726.421629,745.97
1575319726.430231,746.57
1575319726.4380732,748.6
1575319726.446971,751.45
1575319726.454349,755.21
1575319726.463076,761.89
1575319726.47089,769.49
1575319726.480605,779.2
1575319726.487175,790.14
1575319726.495884,801.32
1575319726.503524,812.36
1575319726.512527,823.64
1575319726.5200498,839.14
1575319726.528749,852.77
1575319726.536413,866.91
1575319726.545728,880.86
1575319726.552814,895.57
1575319726.5651221,912.94
1575319726.573218,939.8
1575319726.581734,963.33
1575319726.5895622,985.82
1575319726.598124,1006.37
1575319726.6060648,1029.15
1575319726.614791,1045.11
1575319726.6263502,1062.9
1575319726.634558,1079.22
1575319726.642952,1092.57
1575319726.654887,1110.22
1575319726.6637099,1127.99
1575319726.6714618,1143.58
1575319726.6802392,1153.3
1575319726.691923,1162.68
1575319726.7004611,1170.0
1575319726.708242,1175.7
1575319726.720481,1184.0
1575319726.7297091,1193.87
1575319726.737043,1201.99
1575319726.746559,1211.32
1575319726.757349,1219.76
1575319726.765721,1225.63
1575319726.773778,1231.18
1575319726.78587,1234.31
1575319726.7943838,1235.58
1575319726.8025868,1236.05
1575319726.810915,1236.01
1575319726.823078,1236.55
1575319726.831539,1238.22
1575319726.839529,1241.47
1575319726.85159,1245.16
1575319726.860014,1250.49
1575319726.867949,1256.57
1575319726.876409,1261.95
1575319726.888608,1268.76
1575319726.897387,1275.22
1575319726.90498,1281.07
1575319726.917042,1285.05
1575319726.925504,1289.42
1575319726.9335911,1292.75
1575319726.941746,1294.62
1575319726.954108,1296.44
1575319726.9628742,1297.74
1575319726.970669,1298.19
1575319726.982526,1298.76
1575319726.991023,1299.75
1575319726.999104,1300.17
1575319727.007414,1300.34
1575319727.019596,1303.41
1575319727.027871,1313.23
1575319727.0359948,1342.26
1575319727.0481868,1395.72
1575319727.056619,1455.78
1575319727.065304,1546.57
1575319727.0730371,1645.21
1575319727.085074,1724.26
1575319727.0935192,1819.37
1575319727.101363,1907.95
1575319727.1152031,1973.71
1575319727.122066,2050.06
1575319727.130667,2120.48
1575319727.138519,2184.42
1575319727.150486,2229.92
1575319727.159061,2279.18
1575319727.166899,2320.34
1575319727.180107,2348.41
1575319727.1876538,2377.77
1575319727.1964018,2400.91
1575319727.2039528,2415.44
1575319727.216002,2429.03
1575319727.224105,2437.71
1575319727.232419,2440.74
1575319727.246946,2441.64
1575319727.25328,2440.71
1575319727.262114,2438.82
1575319727.269326,2434.13
1575319727.2820532,2425.97
1575319727.29,2416.63
1575319727.298499,2402.16
1575319727.31037,2386.67
1575319727.31843,2374.65
1575319727.326785,2359.62
1575319727.334847,2343.8
1575319727.347224,2330.08
1575319727.3555799,2311.47
1575319727.364348,2293.04
1575319727.3762019,2276.38
1575319727.384029,2264.48
1575319727.39235,2251.5
1575319727.400408,2239.01
1575319727.413504,2227.94
1575319727.421082,2212.54
1575319727.42991,2195.77
1575319727.4417841,2181.57
1575319727.449578,2163.35
1575319727.458219,2146.82
1575319727.465966,2135.78
1575319727.479008,2124.67
1575319727.486437,2114.54
1575319727.4967282,2105.48
1575319727.507148,2091.83
1575319727.51618,2075.94
1575319727.523585,2064.37
1575319727.531487,2056.38
1575319727.5438678,2058.49
1575319727.551927,2066.76
1575319727.561019,2080.93
1575319727.572763,2093.74
1575319727.5812511,2100.02
1575319727.589061,2101.81
1575319727.597724,2100.3
1575319727.60945,2098.09
1575319727.617451,2095.47
1575319727.6259289,2090.54
1575319727.637959,2083.13
1575319727.6467998,2074.52
1575319727.6546052,2060.84
1575319727.6633458,2045.44
1575319727.67517,2033.6
1575319727.68312,2020.64
1575319727.6918201,2009.74
1575319727.703501,2002.35
1575319727.712669,1994.72
1575319727.7201002,1987.54
1575319727.728982,1980.92
1575319727.740896,1971.38
1575319727.749237,1960.63
1575319727.75675,1952.48
1575319727.7690828,1943.1
1575319727.778364,1933.52
1575319727.7854111,1925.66
1575319727.793921,1916.55
1575319727.806156,1908.84
1575319727.814924,1902.94
1575319727.822575,1894.01
1575319727.834611,1883.25
1575319727.842911,1872.83
1575319727.8510342,1865.84
1575319727.8594391,1859.72
1575319727.871718,1855.54
1575319727.88022,1852.5
1575319727.888135,1848.46
1575319727.900347,1843.28
1575319727.908353,1837.99
1575319727.916456,1830.75
1575319727.9251041,1824.87
1575319727.937124,1818.67
1575319727.9460568,1800.69
1575319727.9536362,1762.18
1575319727.966602,1712.88
1575319727.9740212,1628.47
1575319727.982076,1523.22
1575319727.990473,1428.56
1575319728.00272,1302.83
1575319728.010814,1173.96
1575319728.019089,1072.29
1575319728.027332,951.41
1575319728.035477,863.32
1575319728.043829,785.45
1575319728.05178,706.54
1575319728.060231,658.6
1575319728.068087,622.98
1575319728.0765,597.72
1575319728.088732,581.08
1575319728.097698,571.36
1575319728.1049972,566.44
1575319728.113987,566.72
1575319728.121475,570.06
1575319728.130027,576.32
1575319728.137849,584.95
1575319728.1464598,594.76
1575319728.154315,606.95
1575319728.163132,615.76
1575319728.170506,623.97
1575319728.179533,632.53
1575319728.186975,642.01
1575319728.196057,652.85
1575319728.2034261,664.64
1575319728.212041,680.43
1575319728.219967,694.03
1575319728.2285042,708.21
1575319728.23618,721.11
1575319728.246251,730.66
1575319728.25272,736.45
1575319728.2621388,740.97
1575319728.268764,744.13
1575319728.277824,747.68
1575319728.2851682,752.24
1575319728.29646,758.91
1575319728.301569,768.09
1575319728.310139,781.99
1575319728.3179688,794.22
1575319728.326422,806.6
1575319728.33426,818.08
1575319728.3428202,828.78
1575319728.354744,838.83
1575319728.363557,850.9
1575319728.3714051,860.52
1575319728.380096,870.61
1575319728.38774,880.8
1575319728.396524,890.8
1575319728.404117,899.82
1575319728.4129548,906.9
1575319728.420521,912.52
1575319728.429169,916.01
1575319728.4369001,920.84
1575319728.445987,929.37
1575319728.453172,942.42
1575319728.461903,959.58
1575319728.469692,984.02
1575319728.478561,1003.96
1575319728.489967,1023.08
1575319728.498913,1045.24
1575319728.50673,1065.56
1575319728.515247,1080.08
1575319728.5270212,1095.85
1575319728.535121,1108.83
1575319728.543416,1118.84
1575319728.555507,1125.29
1575319728.56464,1133.28
1575319728.572125,1142.04
1575319728.58092,1150.06
1575319728.592633,1161.06
1575319728.600547,1171.24
1575319728.608887,1176.69
1575319728.6209888,1179.38
1575319728.6299038,1178.56
1575319728.6376681,1176.91
1575319728.646655,1175.95
1575319728.6582909,1178.98
1575319728.666393,1184.58
1575319728.674487,1193.31
1575319728.686545,1201.46
1575319728.697825,1206.46
1575319728.702896,1211.3
1575319728.7126322,1217.01
1575319728.723818,1223.96
1575319728.732569,1235.38
1575319728.740046,1248.12
1575319728.752359,1257.48
1575319728.761209,1266.47
1575319728.768408,1270.74
1575319728.776854,1271.85
1575319728.7889721,1276.15
1575319728.79777,1295.73
1575319728.805658,1338.99
1575319728.8177788,1390.99
1575319728.826062,1471.97
1575319728.8340428,1562.71
1575319728.842491,1638.56
1575319728.854642,1736.89
1575319728.864126,1839.46
1575319728.8711019,1922.87
1575319728.883451,2024.37
1575319728.891605,2117.71
1575319728.899529,2184.66
1575319728.908185,2258.51
1575319728.9201238,2321.32
1575319728.928905,2363.8
1575319728.936584,2407.22
1575319728.948957,2440.36
1575319728.957149,2460.68
1575319728.9658382,2480.38
1575319728.973492,2495.93
1575319728.985712,2506.21
1575319728.9939368,2517.22
1575319729.001915,2525.86
1575319729.014443,2531.07
1575319729.022527,2532.18
1575319729.031408,2530.63
1575319729.039101,2526.11
1575319729.051104,2520.45
1575319729.0596569,2510.36
1575319729.067468,2497.66
1575319729.0803819,2486.55
1575319729.0881212,2473.17
1575319729.0970051,2461.96
1575319729.1046321,2455.47
1575319729.116607,2449.59
1575319729.1250958,2446.02
1575319729.133158,2443.82
1575319729.146204,2439.43
1575319729.153725,2431.87
1575319729.162522,2423.89
1575319729.170045,2413.18
1575319729.182206,2403.34
1575319729.190614,2396.61
1575319729.198987,2388.12
1575319729.211015,2376.49
1575319729.219177,2363.49
1575319729.227432,2343.44
1575319729.23563,2322.1
1575319729.247941,2301.58
1575319729.255984,2286.04
1575319729.265097,2267.32
1575319729.2765272,2247.7
1575319729.2846332,2230.71
1575319729.29296,2208.67
1575319729.30102,2188.27
1575319729.313845,2173.8
1575319729.321611,2158.81
1575319729.330165,2145.82
1575319729.3420448,2135.45
1575319729.350234,2120.83
1575319729.3585331,2103.23
1575319729.3664792,2087.12
1575319729.379744,2065.31
1575319729.3870668,2044.93
1575319729.39587,2031.64
1575319729.407725,2015.06
1575319729.4158442,1988.22
1575319729.4241621,1951.93
1575319729.4331,1882.64
1575319729.4444668,1786.0
1575319729.452683,1691.64
1575319729.460842,1558.7
1575319729.4730859,1416.74
1575319729.4818351,1274.55
1575319729.4895182,1166.07
1575319729.498296,1042.02
1575319729.506051,935.11
1575319729.5147321,863.62
1575319729.5223522,804.56
1575319729.530891,755.99
1575319729.542905,715.69
1575319729.550946,682.45
1575319729.559236,650.52
1575319729.567544,632.86
1575319729.575517,622.49
1575319729.5835352,619.4
1575319729.591964,622.51
1575319729.599956,630.05
1575319729.608576,639.92
1575319729.616574,652.48
1575319729.624919,661.73
1575319729.632728,670.26
1575319729.641218,678.41
1575319729.649139,686.53
1575319729.6576252,695.48
1575319729.6665118,708.54
1575319729.674028,720.14
1575319729.6819851,731.8
1575319729.6903849,741.37
1575319729.6999612,748.21
1575319729.706784,753.14
1575319729.714765,760.24
1575319729.72298,768.15
1575319729.731859,778.27
1575319729.739415,789.49
1575319729.747985,800.74
1575319729.756041,810.82
1575319729.765005,821.22
1575319729.772078,827.8
1575319729.7810078,833.17
1575319729.788405,838.23
1575319729.79735,843.78
1575319729.809134,850.62
1575319729.817081,858.82
1575319729.825346,870.33
1575319729.833447,880.32
1575319729.841865,890.79
1575319729.8498402,901.14
1575319729.8584268,911.08
1575319729.866542,920.57
1575319729.874588,931.65
1575319729.8827672,940.88
1575319729.890754,951.66
1575319729.8993,964.8
1575319729.907159,980.09
1575319729.91561,996.41
1575319729.923954,1016.07
1575319729.936013,1029.72
1575319729.944318,1042.64
1575319729.952273,1050.32
1575319729.961306,1053.42
1575319729.9729338,1056.59
1575319729.981507,1061.84
1575319729.989402,1068.28
1575319730.001499,1078.72
1575319730.0097332,1089.89
1575319730.01773,1097.98
1575319730.026512,1107.88
1575319730.038242,1118.33
1575319730.047002,1126.92
1575319730.054955,1136.99
1575319730.063832,1145.67
1575319730.075386,1151.59
1575319730.0834408,1157.58
1575319730.092316,1163.03
1575319730.103822,1167.66
1575319730.11294,1173.95
1575319730.120397,1180.5
1575319730.12923,1187.67
1575319730.1409762,1194.09
1575319730.1490061,1202.61
1575319730.157378,1211.0
1575319730.169353,1217.48
1575319730.178577,1225.49
1575319730.185882,1233.5
1575319730.1942809,1239.4
1575319730.2065349,1245.26
1575319730.215029,1248.07
1575319730.2228239,1248.17
1575319730.2350771,1247.04
1575319730.243424,1247.29
1575319730.251285,1249.92
1575319730.260098,1256.36
1575319730.2718022,1265.47
1575319730.281177,1273.56
1575319730.288192,1283.93
1575319730.300367,1297.52
1575319730.308701,1315.79
1575319730.316755,1354.35
1575319730.325374,1413.97
1575319730.337316,1474.72
1575319730.3467588,1560.14
1575319730.353801,1649.5
1575319730.3659189,1738.2
1575319730.3744571,1807.14
1575319730.382307,1889.41
1575319730.3907788,1966.46
1575319730.4029598,2023.93
1575319730.411513,2089.73
1575319730.419223,2148.51
1575319730.431446,2190.71
1575319730.4399092,2237.66
1575319730.4487839,2278.66
1575319730.456492,2308.28
1575319730.468532,2341.18
1575319730.476893,2368.96
1575319730.484761,2386.88
1575319730.4980638,2403.34
1575319730.505375,2413.68
1575319730.514252,2419.2
1575319730.521929,2424.21
1575319730.5339992,2427.44
1575319730.542351,2428.58
1575319730.550464,2427.06
1575319730.5632,2422.28
1575319730.571025,2416.56
1575319730.5796669,2408.59
1575319730.58741,2400.78
1575319730.599895,2393.28
1575319730.607977,2387.79
1575319730.616315,2381.51
1575319730.629434,2374.6
1575319730.6366668,2367.99
1575319730.645566,2357.85
1575319730.65283,2346.63
1575319730.6654038,2338.53
1575319730.673461,2329.75
1575319730.682016,2320.35
1575319730.694123,2310.78
1575319730.7017758,2295.15
1575319730.7101812,2276.78
1575319730.718217,2261.84
1575319730.731429,2246.14
1575319730.7389371,2235.05
1575319730.747691,2228.35
1575319730.759539,2220.66
1575319730.767305,2210.98
1575319730.775748,2200.36
1575319730.783746,2183.85
1575319730.797002,2165.62
1575319730.80447,2151.58
1575319730.813316,2135.48
1575319730.824887,2120.65
1575319730.83287,2107.09
1575319730.8413792,2095.74
1575319730.8492532,2074.31
1575319730.86214,2035.82
1575319730.869854,1987.78
1575319730.878783,1905.8
1575319730.890524,1804.86
1575319730.898409,1715.58
1575319730.90694,1597.69
1575319730.91601,1476.29
1575319730.927199,1378.02
1575319730.935439,1254.85
1575319730.943668,1134.57
1575319730.955853,1044.27
1575319730.965058,944.87
1575319730.97213,879.87
1575319730.9808059,829.06
1575319730.988765,783.22
1575319730.997561,757.92
1575319731.005171,740.21
1575319731.013713,727.84
1575319731.02157,719.22
1575319731.030306,713.51
1575319731.037855,710.53
1575319731.0467358,710.86
1575319731.05424,714.38
1575319731.062888,720.04
1575319731.0707042,726.52
1575319731.079343,732.95
1575319731.087105,738.84
1575319731.096029,745.26
1575319731.10336,750.41
1575319731.1120472,756.08
1575319731.119841,762.96
1575319731.129271,771.25
1575319731.136203,781.59
1575319731.144556,797.6
1575319731.152538,811.88
1575319731.160834,825.81
1575319731.168906,838.32
1575319731.1773188,848.88
1575319731.1852832,858.64
1575319731.198103,871.39
1575319731.205823,882.78
1575319731.214257,895.14
1575319731.222322,907.89
1575319731.231254,920.59
1575319731.238494,933.03
1575319731.2475038,944.84
1575319731.255161,957.01
1575319731.26382,964.18
1575319731.2712471,970.32
1575319731.280063,977.55
1575319731.287658,987.56
1575319731.296292,999.84
1575319731.30394,1016.78
1575319731.313214,1029.71
1575319731.324851,1043.99
1575319731.332944,1056.77
1575319731.341057,1066.1
1575319731.3530781,1076.44
1575319731.361578,1085.61
1575319731.369586,1092.82
1575319731.377912,1102.75
1575319731.390269,1113.32
1575319731.400557,1121.78
1575319731.406527,1131.24
1575319731.418632,1139.23
1575319731.4271219,1144.87
1575319731.435167,1151.46
1575319731.443562,1159.15
1575319731.455604,1165.88
1575319731.4644248,1173.52
1575319731.472225,1179.53
1575319731.484258,1183.68
1575319731.492552,1185.94
1575319731.500609,1188.26
1575319731.508827,1191.25
1575319731.5211241,1195.03
1575319731.529996,1201.72
1575319731.537685,1210.13
1575319731.549859,1217.36
1575319731.558243,1226.15
1575319731.5662138,1233.52
1575319731.574548,1238.15
1575319731.5867898,1242.04
1575319731.595673,1244.81
1575319731.603046,1248.03
1575319731.6154811,1254.65
1575319731.62372,1263.85
1575319731.632603,1271.88
1575319731.640082,1280.37
1575319731.652076,1285.01
1575319731.6606028,1285.89
1575319731.66875,1285.96
1575319731.6813068,1286.32
1575319731.689265,1286.69
1575319731.698813,1288.03
1575319731.705576,1296.38
1575319731.717581,1321.78
1575319731.726191,1358.72
1575319731.7341828,1424.39
1575319731.7473972,1505.99
1575319731.754694,1578.07
1575319731.763644,1671.95
1575319731.7708879,1767.78
1575319731.783156,1844.71
1575319731.7915142,1938.88
1575319731.799829,2028.01
1575319731.812711,2093.8
1575319731.820176,2166.8
1575319731.829791,2228.9
1575319731.836722,2271.47
1575319731.848895,2316.72
1575319731.857068,2354.23
1575319731.865929,2379.7
1575319731.877663,2405.59
1575319731.8856761,2423.17
1575319731.896937,2431.13
1575319731.901951,2435.12
1575319731.915879,2435.0
1575319731.9226182,2433.37
1575319731.9311721,2431.02
1575319731.943252,2429.21
1575319731.951246,2427.72
1575319731.959608,2426.64
1575319731.9674802,2425.86
1575319731.980507,2424.68
1575319731.988225,2423.58
1575319731.996751,2422.86
1575319732.00882,2421.21
1575319732.017077,2417.19
1575319732.025265,2406.9
1575319732.0330482,2392.3
1575319732.046367,2378.74
1575319732.0536299,2360.67
1575319732.0624928,2342.38
1575319732.074381,2327.41
1575319732.082954,2307.6
1575319732.09071,2286.71
1575319732.100501,2270.75
1575319732.110935,2252.56
1575319732.119211,2235.7
1575319732.1273768,2222.88
1575319732.1396768,2207.68
1575319732.149316,2192.73
1575319732.156107,2180.7
1575319732.164834,2165.99
1575319732.176785,2151.46
1575319732.184721,2137.55
1575319732.193066,2128.12
1575319732.2050931,2118.84
1575319732.213921,2110.37
1575319732.221719,2102.63
1575319732.230895,2091.44
1575319732.242054,2078.88
1575319732.2502038,2068.36
1575319732.2586281,2055.62
1575319732.27086,2044.81
1575319732.2799308,2038.02
1575319732.286957,2032.44
1575319732.296596,2031.16
1575319732.307659,2030.65
1575319732.315917,2021.37
1575319732.324091,1992.63
1575319732.336189,1952.13
1575319732.344621,1879.5
1575319732.352617,1784.97
1575319732.360855,1697.45
1575319732.373214,1578.71
1575319732.382091,1455.99
1575319732.3896499,1359.52
1575319732.401599,1245.8
1575319732.410103,1142.71
1575319732.418081,1051.85
1575319732.426558,989.27
1575319732.4343839,935.98
1575319732.442983,881.4
1575319732.450861,846.32
1575319732.4595,818.34
1575319732.467391,796.7
1575319732.47559,780.66
1575319732.483691,769.46
1575319732.49217,762.43
1575319732.4999812,758.44
1575319732.508755,758.63
1575319732.5206091,761.8
1575319732.5296571,767.92
1575319732.53686,776.56
1575319732.545273,786.63
1575319732.553348,798.77
1575319732.562243,807.75
1575319732.569864,817.33
1575319732.578341,828.25
1575319732.586228,841.1
1575319732.59448,854.78
1575319732.60254,869.64
1575319732.610741,877.11
1575319732.618783,880.36
1575319732.627241,880.91
1575319732.63516,881.4
1575319732.643469,882.99
1575319732.651583,886.47
1575319732.660213,889.92
1575319732.668051,893.48
1575319732.6765969,897.02
1575319732.684298,900.9
1575319732.692652,904.87
1575319732.700686,909.22
1575319732.708986,914.34
1575319732.717078,917.77
1575319732.725475,921.37
1575319732.7334988,926.32
1575319732.742055,932.84
1575319732.750056,940.87
1575319732.758549,952.29
1575319732.766258,962.24
1575319732.7791831,972.74
1575319732.7866921,984.06
1575319732.7960472,995.39
1575319732.803261,1006.95
1575319732.8125591,1021.2
1575319732.819867,1033.76
1575319732.8325279,1041.63
1575319732.840353,1049.0
1575319732.849163,1055.08
1575319732.8605492,1060.84
1575319732.868812,1069.5
1575319732.8771489,1078.62
1575319732.8849962,1087.0
1575319732.8980742,1093.24
1575319732.905754,1100.34
1575319732.9144619,1107.32
1575319732.926285,1113.4
1575319732.934138,1121.68
1575319732.942654,1130.53
1575319732.950685,1137.66
1575319732.963576,1146.23
1575319732.971272,1153.72
1575319732.980035,1159.1
1575319732.9919128,1166.46
1575319732.999701,1175.05
1575319733.008306,1182.37
1575319733.0173912,1190.6
1575319733.029106,1195.66
1575319733.036789,1196.97
1575319733.0458481,1196.74
1575319733.057436,1196.95
1575319733.065969,1199.01
1575319733.0736861,1204.16
1575319733.081913,1211.86
1575319733.0958579,1219.61
1575319733.1022232,1230.59
1575319733.1104472,1243.21
1575319733.122738,1257.34
1575319733.131663,1268.92
1575319733.139264,1281.07
1575319733.147957,1289.71
1575319733.159729,1294.99
1575319733.1676428,1300.84
1575319733.1763132,1306.32
1575319733.1881669,1310.3
1575319733.197118,1314.77
1575319733.204675,1319.15
1575319733.213439,1322.84
1575319733.225407,1327.37
1575319733.233365,1332.38
1575319733.2416651,1336.65
1575319733.253741,1341.61
1575319733.264462,1345.51
1575319733.270334,1347.63
1575319733.279222,1349.72
1575319733.2906518,1351.83
1575319733.299244,1353.47
1575319733.3071759,1354.86
1575319733.3193521,1355.13
1575319733.327687,1354.76
1575319733.3357089,1354.92
1575319733.343931,1356.71
1575319733.3563352,1360.53
1575319733.365639,1365.02
1575319733.3726761,1370.74
1575319733.3847208,1375.85
1575319733.393278,1379.63
1575319733.401332,1383.61
1575319733.409698,1386.3
1575319733.42172,1387.52
1575319733.4306822,1387.75
1575319733.4382331,1387.53
1575319733.450285,1387.97
1575319733.4587789,1389.2
1575319733.466662,1390.01
1575319733.4752781,1389.83
1575319733.4873862,1388.75
1575319733.4969459,1387.47
1575319733.503496,1386.42
1575319733.515757,1386.08
1575319733.5242329,1388.05
1575319733.533024,1391.75
1575319733.5407841,1397.9
1575319733.552736,1404.56
1575319733.560997,1410.01
1575319733.569172,1416.64
1575319733.582976,1422.2
1575319733.589823,1426.9
1575319733.598411,1433.08
1575319733.606261,1451.32
1575319733.618318,1487.79
1575319733.6268318,1530.18
1575319733.634573,1595.3
1575319733.647488,1667.87
1575319733.655307,1728.72
1575319733.664043,1806.75
1575319733.6716192,1887.12
1575319733.683684,1953.09
1575319733.692162,2036.07
1575319733.700184,2117.63
1575319733.713116,2180.4
1575319733.720771,2253.42
1575319733.729631,2318.09
1575319733.73726,2362.29
1575319733.749239,2407.97
1575319733.7578108,2444.77
1575319733.766123,2469.16
1575319733.7786791,2494.3
1575319733.786124,2514.4
1575319733.795321,2527.24
1575319733.802565,2539.52
1575319733.815562,2547.25
1575319733.823236,2550.4
1575319733.8319528,2549.53
1575319733.843787,2544.64
1575319733.851928,2537.53
1575319733.860267,2532.07
1575319733.868077,2526.47
1575319733.881139,2522.74
1575319733.8887649,2519.67
1575319733.897352,2513.29
1575319733.909152,2502.04
1575319733.917249,2489.58
1575319733.9255621,2472.52
1575319733.933663,2456.26
1575319733.946686,2444.42
1575319733.954305,2430.77
1575319733.9627688,2417.01
1575319733.974997,2406.0
1575319733.982763,2392.96
1575319733.991269,2379.89
1575319733.999804,2368.76
1575319734.01162,2353.85
1575319734.019809,2338.69
1575319734.0284789,2327.33
1575319734.0405939,2314.26
1575319734.049661,2300.36
1575319734.056673,2284.97
1575319734.065024,2272.67
1575319734.077214,2258.46
1575319734.0852811,2244.15
1575319734.0966558,2231.37
1575319734.105841,2213.42
1575319734.114309,2194.03
1575319734.122354,2178.74
1575319734.1310349,2161.11
1575319734.142688,2145.63
1575319734.150752,2134.14
1575319734.159117,2120.4
1575319734.171175,2107.09
1575319734.180049,2096.48
1575319734.1878378,2082.51
1575319734.196436,2068.13
1575319734.208121,2057.19
1575319734.216257,2044.65
1575319734.224782,2032.64
1575319734.236992,2023.42
1575319734.246256,2012.98
1575319734.2533069,2004.08
1575319734.263011,1997.31
1575319734.273728,1987.85
1575319734.282285,1976.4
1575319734.2900732,1962.62
1575319734.3021991,1951.04
1575319734.310515,1938.16
1575319734.318828,1929.36
1575319734.327245,1924.69
1575319734.339438,1916.13
1575319734.347851,1893.12
1575319734.355836,1857.26
1575319734.367984,1787.65
1575319734.3760629,1694.31
1575319734.38428,1608.14
1575319734.392564,1491.66
1575319734.404959,1369.92
1575319734.4137092,1270.99
1575319734.421362,1148.86
1575319734.4338691,1034.04
1575319734.441808,952.66
1575319734.449661,868.56
1575319734.458173,816.3
1575319734.46618,776.58
1575319734.474518,747.82
1575319734.4837031,727.1
1575319734.490914,711.67
1575319734.4988601,697.37
1575319734.5072799,689.24
1575319734.515966,684.44
1575319734.523725,682.6
1575319734.533678,683.78
1575319734.539986,688.03
1575319734.548615,695.19
1575319734.556504,706.91
1575319734.565929,717.27
1575319734.5727732,727.43
1575319734.581398,736.81
1575319734.58922,744.62
1575319734.597905,750.73
1575319734.605578,756.67
1575319734.614242,761.13
1575319734.621959,765.64
1575319734.6307042,770.89
1575319734.638832,777.84
1575319734.6479979,786.35
1575319734.654798,798.77
1575319734.663834,810.01
1575319734.671199,820.89
1575319734.679924,828.23
1575319734.6874702,829.95
1575319734.699525,826.07
1575319734.7080488,819.08
1575319734.71606,816.61
1575319734.724385,818.52
1575319734.732762,823.74
1575319734.7408278,830.43
1575319734.749512,836.88
1575319734.757209,842.8
1575319734.766405,850.48
1575319734.773542,857.43
1575319734.78235,865.33
1575319734.789716,874.34
1575319734.798843,884.75
1575319734.8061461,896.62
1575319734.81487,913.96
1575319734.822654,929.01
1575319734.8313339,944.05
1575319734.8392088,957.81
1575319734.84791,970.38
1575319734.855448,981.76
1575319734.864015,995.77
1575319734.8718982,1007.88
1575319734.884359,1021.01
1575319734.892294,1037.72
1575319734.900274,1052.98
1575319734.91314,1063.42
1575319734.920915,1073.89
1575319734.929664,1081.98
1575319734.93737,1087.72
1575319734.949365,1095.14
1575319734.9578571,1102.52
1575319734.966152,1108.87
1575319734.978954,1112.7
1575319734.9864,1116.09
1575319734.9951072,1119.48
1575319735.002888,1123.45
1575319735.015567,1130.35
1575319735.023486,1138.23
1575319735.033311,1144.48
1575319735.0438972,1151.39
1575319735.0518222,1156.32
1575319735.060439,1158.92
1575319735.068288,1160.87
1575319735.081097,1162.8
1575319735.088929,1165.66
1575319735.0976279,1171.75
1575319735.109278,1180.32
1575319735.117424,1187.21
1575319735.125781,1194.62
1575319735.1338391,1201.26
1575319735.1471941,1206.37
1575319735.154325,1212.59
1575319735.16335,1218.15
1575319735.175176,1221.5
1575319735.182923,1224.65
1575319735.191478,1226.94
1575319735.19939,1229.97
1575319735.2130282,1233.88
1575319735.2199218,1240.31
1575319735.2288089,1247.25
1575319735.240353,1252.67
1575319735.248539,1258.96
1575319735.257014,1264.08
1575319735.265732,1267.01
1575319735.2778869,1271.42
1575319735.2852979,1283.31
1575319735.2937899,1303.12
1575319735.305822,1342.89
1575319735.315157,1398.53
1575319735.3225138,1451.98
1575319735.3311732,1525.57
1575319735.342984,1602.95
1575319735.350915,1664.95
1575319735.359203,1741.6
1575319735.371458,1817.01
1575319735.3809159,1876.05
1575319735.387938,1947.16
1575319735.396687,2013.25
1575319735.4085371,2061.92
1575319735.41645,2118.13
1575319735.424883,2168.79
1575319735.436833,2211.61
1575319735.445351,2238.42
1575319735.453525,2262.33
1575319735.461994,2276.09
1575319735.474,2281.15
1575319735.483413,2281.64
1575319735.490506,2277.61
1575319735.502548,2272.88
1575319735.510806,2268.57
1575319735.518864,2271.75
1575319735.5273778,2282.12
1575319735.539495,2305.11
1575319735.548086,2334.93
1575319735.556012,2358.91
1575319735.5680661,2384.19
1575319735.576499,2402.15
1575319735.584512,2410.03
1575319735.592685,2413.4
1575319735.604931,2412.29
1575319735.613695,2410.25
1575319735.6213288,2407.32
1575319735.633455,2403.76
1575319735.642129,2398.65
1575319735.64996,2388.15
1575319735.658328,2373.18
1575319735.670579,2355.37
1575319735.678771,2340.31
1575319735.686722,2321.45
1575319735.69909,2302.63
1575319735.7074099,2288.05
1575319735.715717,2271.29
1575319735.7239392,2255.9
1575319735.7361002,2243.62
1575319735.744395,2227.76
1575319735.752334,2211.05
1575319735.7650812,2197.2
1575319735.7731998,2180.44
1575319735.782945,2165.04
1575319735.789359,2153.52
1575319735.801366,2140.89
1575319735.80978,2129.55
1575319735.8178089,2120.3
1575319735.8308659,2107.44
1575319735.838516,2093.36
1575319735.847278,2082.02
1575319735.854934,2067.9
1575319735.866903,2053.25
1575319735.8755908,2041.37
1575319735.8835719,2027.35
1575319735.8969631,2015.53
1575319735.904,2006.18
1575319735.9127119,1999.55
1575319735.9204428,1991.04
1575319735.932483,1981.5
1575319735.9409332,1973.51
1575319735.949035,1963.96
1575319735.9614122,1955.52
1575319735.969392,1950.37
1575319735.977663,1947.88
1575319735.985919,1946.93
1575319735.998592,1939.22
1575319736.006505,1908.53
1575319736.015831,1847.13
1575319736.0269282,1776.66
1575319736.034941,1668.73
1575319736.043357,1547.66
1575319736.051351,1445.75
1575319736.064196,1315.83
1575319736.071907,1187.54
1575319736.080668,1091.04
1575319736.0884988,985.69
1575319736.097621,917.75
1575319736.1047711,865.48
1575319736.113469,819.94
1575319736.121204,796.67
1575319736.129993,782.63
1575319736.137493,776.45
1575319736.147095,775.21
1575319736.1580732,775.98
1575319736.166611,776.18
1575319736.174357,774.7
1575319736.18243,772.11
1575319736.190806,769.68
1575319736.200282,768.8
1575319736.2070909,770.37
1575319736.2152221,776.6
1575319736.223758,784.52
1575319736.2324212,794.23
1575319736.239962,805.15
1575319736.248533,817.16
1575319736.256373,829.03
1575319736.26561,838.03
1575319736.2726521,841.37
1575319736.281398,837.41
1575319736.2889678,830.5
1575319736.298274,824.58
1575319736.3053398,822.1
1575319736.3143098,823.2
1575319736.321804,828.23
1575319736.3309371,834.96
1575319736.338193,844.56
1575319736.3470132,856.64
1575319736.354666,869.82
1575319736.363667,882.12
1575319736.370912,895.27
1575319736.3802838,903.51
1575319736.387245,909.51
1575319736.3960378,914.17
1575319736.403734,919.11
1575319736.4166532,925.03
1575319736.424232,933.62
1575319736.432374,940.26
1575319736.4406888,946.48
1575319736.4490612,953.12
1575319736.457068,961.24
1575319736.465696,971.52
1575319736.473349,983.52
1575319736.4821508,999.3
1575319736.489953,1011.33
1575319736.4996321,1022.39
1575319736.510444,1035.44
1575319736.518202,1048.34
1575319736.526863,1061.25
1575319736.534682,1071.61
1575319736.547539,1084.04
1575319736.5552619,1095.42
1575319736.564118,1104.19
1575319736.5757692,1115.31
1575319736.583807,1126.84
1575319736.592451,1135.73
1575319736.600221,1145.47
1575319736.613749,1153.38
1575319736.620689,1158.42
1575319736.629736,1162.85
1575319736.6416,1166.84
1575319736.649919,1170.56
1575319736.6577249,1176.24
1575319736.6659,1183.09
1575319736.678207,1189.69
1575319736.686225,1199.72
1575319736.694943,1212.1
1575319736.707075,1222.97
1575319736.715681,1235.94
1575319736.7233129,1245.78
1575319736.731642,1250.35
1575319736.743808,1252.99
1575319736.7518752,1254.55
1575319736.7601972,1256.98
1575319736.772376,1260.24
1575319736.781152,1264.54
1575319736.78866,1266.22
1575319736.797518,1265.17
1575319736.809154,1263.13
1575319736.8172328,1263.39
1575319736.825891,1266.46
1575319736.83768,1273.8
1575319736.8466089,1284.69
1575319736.854401,1295.2
1575319736.863054,1306.86
1575319736.874794,1314.88
1575319736.882808,1319.69
1575319736.8913112,1323.62
1575319736.9032478,1323.99
1575319736.912221,1322.24
1575319736.919845,1321.1
1575319736.928062,1324.13
1575319736.94045,1328.99
1575319736.948707,1335.12
1575319736.956936,1338.5
1575319736.9688032,1339.17
1575319736.977237,1338.57
1575319736.9852521,1337.41
1575319736.9937952,1337.68
1575319737.0057,1339.62
1575319737.014763,1342.61
1575319737.0222049,1343.4
1575319737.0342348,1342.61
1575319737.0426502,1342.13
1575319737.050719,1343.39
1575319737.0591638,1345.44
1575319737.0713549,1347.58
1575319737.079395,1350.65
1575319737.087604,1355.7
1575319737.0999172,1364.42
1575319737.1083,1372.81
1575319737.1163058,1377.54
1575319737.124809,1380.93
1575319737.1368032,1382.58
1575319737.1461499,1383.28
1575319737.153378,1385.18
1575319737.16713,1389.1
1575319737.173837,1393.29
1575319737.1827662,1398.9
1575319737.190322,1404.73
1575319737.202364,1409.66
1575319737.210809,1417.34
1575319737.2187362,1429.13
1575319737.231473,1445.24
1575319737.2393851,1459.28
1575319737.247952,1474.7
1575319737.255868,1486.33
1575319737.267881,1493.58
1575319737.2762969,1500.1
1575319737.2843258,1500.65
1575319737.297181,1496.37
1575319737.304708,1488.03
1575319737.31357,1479.76
1575319737.321126,1474.94
1575319737.3333051,1475.0
1575319737.341732,1489.09
1575319737.349853,1515.68
1575319737.363175,1571.87
1575319737.370385,1649.72
1575319737.3796322,1720.8
1575319737.3867662,1812.38
1575319737.399426,1901.6
1575319737.407397,1970.5
1575319737.416518,2054.92
1575319737.427658,2137.95
1575319737.435922,2201.47
1575319737.4441001,2273.27
1575319737.452256,2332.76
1575319737.4655302,2378.77
1575319737.4728801,2408.55
1575319737.481802,2440.25
1575319737.493876,2467.09
1575319737.501378,2486.39
1575319737.5096152,2508.56
1575319737.517666,2528.4
1575319737.530603,2541.4
1575319737.538432,2550.4
1575319737.547241,2548.71
1575319737.55904,2540.15
1575319737.566792,2523.06
1575319737.5754392,2504.42
1575319737.584079,2491.56
1575319737.596551,2479.39
1575319737.60377,2471.67
1575319737.612661,2466.65
1575319737.624594,2458.99
1575319737.6331918,2446.69
1575319737.640864,2432.2
1575319737.650142,2410.92
1575319737.6611671,2390.24
1575319737.669245,2376.5
1575319737.6777658,2367.72
1575319737.6896908,2370.75
1575319737.698352,2382.7
1575319737.706414,2392.62
1575319737.716317,2397.56
1575319737.72674,2389.71
1575319737.7347682,2375.49
1575319737.74327,2352.99
1575319737.755229,2331.06
1575319737.7640011,2315.89
1575319737.771878,2299.12
1575319737.781101,2281.79
1575319737.792254,2266.64
1575319737.8004212,2246.61
1575319737.8086689,2226.21
1575319737.82078,2209.77
1575319737.8296242,2189.74
1575319737.8373609,2170.18
1575319737.846453,2155.29
1575319737.85787,2139.42
1575319737.8659358,2128.64
1575319737.874162,2122.13
1575319737.8864808,2106.74
1575319737.898001,2069.41
1575319737.902794,2017.27
1575319737.911016,1924.5
1575319737.923329,1809.71
1575319737.933169,1683.94
1575319737.9397278,1580.82
1575319737.9519901,1452.99
1575319737.960421,1329.7
1575319737.968244,1236.67
1575319737.976724,1131.01
1575319737.98895,1041.13
1575319737.997525,981.6
1575319738.005354,933.12
1575319738.0142012,887.58
1575319738.021746,862.11
1575319738.030571,844.9
1575319738.037917,834.58
1575319738.047049,828.69
1575319738.0544262,825.24
1575319738.063447,823.69
1575319738.070901,825.14
1575319738.0798562,829.12
1575319738.0870981,836.53
1575319738.097693,846.98
1575319738.1036,858.89
1575319738.1119308,873.22
1575319738.11996,883.47
1575319738.128614,892.83
1575319738.1363719,901.39
1575319738.144521,909.44
1575319738.152769,916.88
1575319738.160894,923.92
1575319738.169012,932.97
1575319738.177388,941.14
1575319738.185385,950.25
1575319738.193986,959.62
1575319738.2059221,967.42
1575319738.214657,972.43
1575319738.222443,976.15
1575319738.231157,978.94
1575319738.2387142,983.7
1575319738.2473202,990.97
1575319738.255218,1000.72
1575319738.2644129,1015.54
1575319738.275758,1030.68
1575319738.283966,1040.07
1575319738.292088,1046.84
1575319738.300092,1049.54
1575319738.313104,1051.5
1575319738.320483,1056.04
1575319738.3296058,1063.74
1575319738.341315,1071.63
1575319738.3498392,1080.97
1575319738.35758,1086.94
1575319738.365654,1089.04
1575319738.3781068,1091.14
1575319738.3860931,1096.31
1575319738.394454,1103.05
1575319738.406558,1112.9
1575319738.415422,1122.74
1575319738.423224,1130.09
1575319738.4317288,1138.03
1575319738.443638,1143.87
1575319738.451649,1147.79
1575319738.460187,1151.05
1575319738.4722052,1157.76
1575319738.48113,1168.95
1575319738.488693,1179.5
1575319738.498689,1190.74
1575319738.509084,1197.12
1575319738.5171552,1198.79
1575319738.525758,1198.66
1575319738.5375528,1198.82
1575319738.546664,1200.91
1575319738.5541272,1206.97
1575319738.56337,1215.56
1575319738.574661,1222.23
1575319738.583043,1227.75
1575319738.59116,1229.83
1575319738.603271,1230.2
1575319738.611881,1231.31
1575319738.619693,1234.88
1575319738.627923,1239.45
1575319738.64028,1246.02
1575319738.648906,1252.0
1575319738.656679,1255.77
1575319738.6686451,1259.38
1575319738.677202,1262.07
1575319738.685069,1264.91
1575319738.6937559,1268.68
1575319738.705684,1275.56
1575319738.714494,1282.66
1575319738.7221918,1286.35
1575319738.734132,1286.7
1575319738.742581,1283.32
1575319738.75057,1281.36
1575319738.7591941,1283.74
1575319738.771295,1292.68
1575319738.780107,1302.39
1575319738.787723,1314.44
1575319738.7998369,1323.67
1575319738.807986,1328.45
1575319738.8162508,1331.71
1575319738.824446,1333.49
1575319738.836757,1335.04
1575319738.8450859,1338.39
1575319738.8530822,1343.21
1575319738.865489,1347.57
1575319738.873707,1352.86
1575319738.8824692,1357.63
1575319738.89025,1360.8
1575319738.902256,1363.1
1575319738.910719,1364.16
1575319738.918499,1364.46
1575319738.9313889,1364.07
1575319738.9392471,1363.3
1575319738.948122,1362.16
1575319738.955683,1361.75
1575319738.967645,1362.96
1575319738.976078,1367.05
1575319738.984096,1371.92
1575319738.996758,1378.53
1575319739.004791,1384.52
1575319739.0135949,1387.83
1575319739.021125,1390.14
1575319739.033223,1394.8
1575319739.041631,1407.2
1575319739.0496168,1442.51
1575319739.0621881,1503.42
1575319739.070027,1567.93
1575319739.079541,1661.99
1575319739.086653,1763.36
1575319739.098825,1845.34
1575319739.1072571,1944.54
1575319739.116309,2037.08
1575319739.127585,2105.7
1575319739.1355891,2184.79
1575319739.144043,2255.2
1575319739.152012,2315.68
1575319739.1649091,2357.13
1575319739.172711,2401.28
1575319739.181497,2437.24
1575319739.193106,2460.78
1575319739.201292,2483.83
1575319739.209414,2500.0
1575319739.217567,2508.67
1575319739.230617,2514.4
1575319739.238198,2515.25
1575319739.247527,2512.62
1575319739.2589052,2506.1
1575319739.266665,2498.08
1575319739.2751172,2491.64
1575319739.283085,2483.25
1575319739.297934,2473.95
1575319739.303705,2465.76
1575319739.313289,2454.09
1575319739.32002,2440.28
1575319739.3327281,2427.15
1575319739.340559,2408.26
1575319739.348754,2388.13
1575319739.361019,2372.58
1575319739.369167,2355.68
1575319739.377589,2340.5
1575319739.385539,2324.41
1575319739.398491,2310.15
1575319739.406208,2292.46
1575319739.4149902,2276.06
1575319739.426684,2263.29
1575319739.43468,2246.38
1575319739.442993,2228.67
1575319739.4510012,2217.13
1575319739.464353,2210.26
1575319739.471692,2212.31
1575319739.480683,2217.41
1575319739.4923048,2223.47
1575319739.500138,2225.45
1575319739.5087922,2223.06
1575319739.517034,2215.81
1575319739.529804,2205.85
1575319739.537382,2197.01
1575319739.546329,2185.4
1575319739.55792,2172.88
1575319739.567165,2161.75
1575319739.574168,2146.83
1575319739.582279,2131.01
1575319739.5946949,2117.68
1575319739.602682,2099.89
1575319739.611138,2082.44
1575319739.6231601,2067.64
1575319739.631947,2058.32
1575319739.639715,2050.16
1575319739.6484091,2045.61
1575319739.6602612,2040.98
1575319739.668221,2023.8
1575319739.676625,1982.51
1575319739.688599,1927.56
1575319739.697216,1832.22
1575319739.705257,1714.53
1575319739.714101,1611.11
1575319739.7258859,1476.99
1575319739.733693,1341.91
1575319739.742194,1235.81
1575319739.754165,1110.19
1575319739.763679,1000.06
1575319739.7706492,928.1
1575319739.7794728,859.48
1575319739.7871628,819.62
1575319739.796126,790.03
1575319739.803599,767.85
1575319739.8115761,750.81
1575319739.81966,737.48
1575319739.828347,725.25
1575319739.836121,719.35
1575319739.844453,717.2
1575319739.852504,718.38
1575319739.8610072,721.47
1575319739.8689542,725.91
1575319739.8774242,731.01
1575319739.885272,738.27
1575319739.893774,744.97
1575319739.9016151,753.03
1575319739.910003,762.51
1575319739.9222841,773.49
1575319739.930825,785.93
1575319739.938687,803.25
1575319739.947408,818.1
1575319739.955065,832.84
1575319739.964176,846.35
1575319739.971489,858.25
1575319739.9799948,868.83
1575319739.987874,881.7
1575319739.996966,893.2
1575319740.0040472,905.85
1575319740.012867,918.4
1575319740.020531,929.61
1575319740.0288682,939.34
1575319740.036758,950.48
1575319740.0457668,958.96
1575319740.053365,967.07
1575319740.0616472,975.0
1575319740.069688,982.11
1575319740.0779278,987.72
1575319740.086087,992.44
1575319740.098388,998.17
1575319740.102417,1003.13
1575319740.115395,1008.72
1575319740.122986,1017.52
1575319740.1317801,1029.23
1575319740.1435468,1042.85
1575319740.151592,1053.89
1575319740.159901,1067.55
1575319740.1679978,1080.34
1575319740.181194,1088.72
1575319740.188493,1096.66
1575319740.197283,1103.62
1575319740.209175,1109.52
1575319740.21697,1117.4
1575319740.2255502,1125.71
1575319740.23362,1132.28
1575319740.2464252,1139.32
1575319740.2543318,1145.96
1575319740.262847,1152.24
1575319740.2744782,1162.28
1575319740.283175,1173.83
1575319740.291032,1183.21
1575319740.300885,1194.01
1575319740.311266,1202.0
1575319740.3194938,1206.37
1575319740.3276958,1210.44
1575319740.33987,1215.44
1575319740.3489542,1221.47
1575319740.3565161,1230.41
1575319740.365362,1238.67
1575319740.377006,1245.68
1575319740.384887,1250.81
1575319740.393398,1256.82
1575319740.405453,1262.6
1575319740.414752,1267.21
1575319740.421978,1273.93
1575319740.430893,1283.1
1575319740.442681,1291.77
1575319740.4505448,1303.26
1575319740.4592278,1314.52
1575319740.471067,1323.0
1575319740.479876,1331.92
1575319740.487541,1337.98
1575319740.496703,1340.96
1575319740.5080268,1344.05
1575319740.516489,1347.77
1575319740.524435,1350.8
1575319740.536643,1354.92
1575319740.544984,1360.74
1575319740.552908,1366.79
1575319740.5612092,1374.36
1575319740.573608,1379.15
1575319740.5828428,1380.13
1575319740.5899148,1378.77
1575319740.6021461,1376.46
1575319740.610464,1374.21
1575319740.6187851,1372.81
1575319740.626772,1371.24
1575319740.6390002,1369.55
1575319740.649581,1368.27
1575319740.655505,1367.71
1575319740.667527,1368.25
1575319740.676182,1369.89
1575319740.684064,1373.53
1575319740.69247,1378.73
1575319740.704621,1383.42
1575319740.713693,1388.39
1575319740.720787,1392.06
1575319740.733129,1393.56
1575319740.741573,1393.63
1575319740.749899,1393.66
1575319740.7580001,1395.16
1575319740.770114,1399.38
1575319740.778476,1404.61
1575319740.7865238,1408.23
1575319740.8000588,1411.5
1575319740.806783,1414.56
1575319740.815734,1417.87
1575319740.823327,1422.97
1575319740.835443,1427.88
1575319740.843852,1430.7
1575319740.851913,1431.14
1575319740.865231,1430.21
1575319740.8726358,1429.22
1575319740.881322,1429.26
1575319740.889065,1430.57
1575319740.901025,1432.66
1575319740.909288,1434.76
1575319740.91744,1437.04
1575319740.930539,1438.37
1575319740.938132,1438.9
1575319740.9471512,1438.54
1575319740.954559,1437.51
1575319740.966573,1436.45
1575319740.975056,1435.41
1575319740.983078,1435.89
1575319740.9967182,1437.81
1575319741.0036101,1441.67
1575319741.011956,1445.66
1575319741.0198689,1448.31
1575319741.033163,1451.09
1575319741.0406022,1453.69
1575319741.050258,1455.63
1575319741.06101,1457.12
1575319741.069076,1458.11
1575319741.077566,1458.92
1575319741.085351,1459.48
1575319741.0983691,1460.61
1575319741.106071,1462.71
1575319741.114434,1464.81
1575319741.126497,1467.47
1575319741.134492,1468.73
1575319741.142844,1467.89
1575319741.1509,1465.17
1575319741.164256,1462.74
1575319741.171595,1462.44
1575319741.180298,1464.38
1575319741.1923451,1467.34
1575319741.200819,1469.06
1575319741.208334,1469.6
1575319741.216477,1467.91
1575319741.228946,1465.6
1575319741.236939,1463.06
1575319741.245447,1462.43
1575319741.257466,1462.75
1575319741.26559,1462.78
1575319741.2741,1461.83
1575319741.283405,1461.09
1575319741.294345,1460.33
1575319741.302536,1461.19
1575319741.310771,1464.04
1575319741.322988,1466.84
1575319741.332714,1469.77
1575319741.339408,1471.17
1575319741.34819,1471.17
1575319741.3599648,1470.05
1575319741.3681111,1467.68
1575319741.376456,1465.74
1575319741.38841,1464.35
1575319741.397377,1464.06
1575319741.405139,1464.76
1575319741.413434,1467.25
1575319741.4256651,1471.07
1575319741.433672,1473.88
1575319741.441916,1475.84
1575319741.454058,1475.55
1575319741.463,1474.23
1575319741.4704561,1473.39
1575319741.4796622,1474.06
1575319741.491124,1475.67
1575319741.49975,1478.91
1575319741.507487,1482.55
1575319741.519525,1484.76
1575319741.5280142,1484.83
1575319741.536022,1481.7
1575319741.5445418,1477.17
1575319741.556606,1474.22
1575319741.5652952,1473.19
1575319741.5731149,1474.77
1575319741.585325,1476.03
1575319741.593573,1476.99
1575319741.6014788,1480.32
1575319741.609807,1485.53
1575319741.622143,1492.44
1575319741.630956,1497.29
1575319741.638619,1500.05
1575319741.650589,1503.59
1575319741.6591702,1508.06
1575319741.66695,1512.34
1575319741.67561,1519.09
1575319741.6876428,1526.19
1575319741.6975129,1530.35
1575319741.703972,1532.12
1575319741.716267,1530.36
1575319741.7246861,1529.34
1575319741.73279,1530.73
1575319741.7411,1531.99
1575319741.753153,1529.89
1575319741.76151,1523.08
1575319741.7695098,1516.53
1575319741.783335,1514.37
1575319741.790081,1515.5
1575319741.798443,1518.11
1575319741.8067431,1519.71
1575319741.818478,1519.96
1575319741.827051,1520.8
1575319741.8349252,1523.52
1575319741.847925,1525.78
1575319741.85565,1526.13
1575319741.865074,1523.85
1575319741.871922,1522.51
1575319741.884112,1523.52
1575319741.892469,1525.55
1575319741.9005,1527.0
1575319741.913623,1530.16
1575319741.921126,1533.71
1575319741.9299788,1533.72
1575319741.937613,1529.49
1575319741.9496121,1526.94
1575319741.9581041,1530.37
1575319741.9662101,1539.66
1575319741.978374,1548.4
1575319741.986665,1552.88
1575319741.994824,1553.93
1575319742.002956,1549.54
1575319742.0171368,1544.67
1575319742.023603,1543.17
1575319742.0321631,1543.31
1575319742.044211,1543.48
1575319742.052196,1542.46
1575319742.060516,1539.92
1575319742.06846,1539.18
1575319742.0814981,1541.92
1575319742.08919,1545.83
1575319742.097728,1545.43
1575319742.109586,1542.53
1575319742.117662,1539.67
1575319742.126125,1538.33
1575319742.133954,1532.98
1575319742.147402,1522.95
1575319742.1544251,1522.16
1575319742.163444,1532.84
1575319742.175292,1551.4
1575319742.1830668,1562.38
1575319742.191613,1562.28
1575319742.2001998,1558.13
1575319742.21232,1560.66
1575319742.220132,1566.37
1575319742.229494,1568.27
1575319742.240623,1563.36
1575319742.249419,1558.68
1575319742.256842,1553.0
1575319742.265955,1543.18
1575319742.2776031,1541.25
1575319742.2856052,1548.86
1575319742.293825,1562.58
1575319742.306371,1566.54
1575319742.3151958,1554.46
1575319742.32247,1524.03
1575319742.3319051,1496.81
1575319742.342962,1494.03
1575319742.351048,1511.53
1575319742.359489,1524.52
1575319742.371516,1515.55
1575319742.380634,1487.69
1575319742.388085,1467.64
1575319742.397568,1465.0
1575319742.4084768,1467.13
1575319742.4165928,1467.44
1575319742.4251,1470.18
1575319742.437119,1478.32
1575319742.446196,1487.55
1575319742.453629,1492.97
1575319742.462007,1496.15
1575319742.4741518,1497.81
1575319742.4824162,1496.59
1575319742.490612,1490.08
1575319742.502553,1476.85
1575319742.511117,1464.33
1575319742.5191119,1458.27
1575319742.527609,1454.17
1575319742.539685,1454.36
1575319742.548266,1458.24
1575319742.556121,1461.94
1575319742.568118,1459.95
1575319742.576575,1454.28
1575319742.584495,1447.83
1575319742.592854,1450.3
1575319742.605205,1458.86
1575319742.614052,1470.66
1575319742.621689,1476.97
1575319742.633951,1477.08
1575319742.642148,1474.98
1575319742.65074,1473.67
1575319742.658587,1474.11
1575319742.670795,1480.07
1575319742.680021,1489.23
1575319742.6870039,1493.29
1575319742.699245,1497.76
1575319742.7077062,1510.22
1575319742.716523,1523.63
1575319742.724076,1526.61
1575319742.736077,1521.02
1575319742.744555,1512.88
1575319742.7525802,1509.08
1575319742.765331,1509.71
1575319742.773219,1515.74
1575319742.782055,1522.68
1575319742.7893791,1530.47
1575319742.8015301,1535.89
1575319742.810146,1539.88
1575319742.818251,1547.63
1575319742.8315048,1559.41
1575319742.838536,1569.57
1575319742.847357,1580.36
1575319742.85503,1588.26
1575319742.8671381,1593.25
1575319742.875791,1600.23
1575319742.8837981,1609.6
1575319742.8966668,1617.6
1575319742.904171,1624.91
1575319742.91293,1628.16
1575319742.920577,1628.62
1575319742.9327629,1627.59
1575319742.9411042,1626.08
1575319742.949745,1625.61
1575319742.9615848,1626.44
1575319742.9696,1629.7
1575319742.977878,1637.6
1575319742.986099,1646.76
1575319742.999455,1657.54
1575319743.0066931,1664.5
1575319743.015448,1667.27
1575319743.027167,1668.06
1575319743.035268,1668.78
1575319743.0434859,1670.56
1575319743.0514948,1672.22
1575319743.064291,1672.12
1575319743.072175,1671.32
1575319743.081082,1669.1
1575319743.088591,1663.77
1575319743.100584,1657.26
1575319743.109248,1646.13
1575319743.116974,1633.53
1575319743.1301131,1625.77
1575319743.137682,1621.83
1575319743.1464279,1623.04
1575319743.154146,1624.95
1575319743.166416,1624.91
1575319743.174598,1620.4
1575319743.183278,1611.23
1575319743.1950982,1601.47
1575319743.203066,1588.17
1575319743.211361,1577.87
1575319743.219646,1574.68
1575319743.2328188,1576.22
1575319743.2401469,1580.2
1575319743.2486138,1583.55
1575319743.260458,1588.5
1575319743.2685282,1593.79
1575319743.276939,1596.15
1575319743.2849422,1595.01
1575319743.297869,1591.27
1575319743.3059351,1590.13
1575319743.31451,1593.79
1575319743.3260102,1600.0
1575319743.3340821,1603.03
1575319743.342454,1602.11
1575319743.350583,1596.89
1575319743.363353,1592.58
1575319743.37132,1590.1
1575319743.380079,1588.97
1575319743.391834,1585.91
1575319743.400063,1578.31
1575319743.408159,1568.7
1575319743.417561,1562.02
1575319743.4287481,1560.51
1575319743.4366899,1560.56
1575319743.4448519,1558.43
1575319743.457133,1554.46
1575319743.466568,1548.61
1575319743.473608,1545.65
1575319743.4823139,1547.29
1575319743.497504,1552.36
1575319743.502381,1555.72
1575319743.5106099,1554.18
1575319743.5225432,1546.45
1575319743.5313401,1536.93
1575319743.5392241,1532.43
1575319743.547956,1530.57
1575319743.559513,1528.91
1575319743.567559,1526.47
1575319743.5762382,1523.71
1575319743.58813,1522.89
1575319743.597048,1523.55
1575319743.604626,1525.02
1575319743.613842,1526.25
1575319743.625238,1526.98
1575319743.633235,1526.78
1575319743.64178,1523.07
1575319743.6536078,1516.68
1575319743.662635,1512.14
1575319743.670151,1509.45
1575319743.6785831,1508.23
1575319743.690785,1505.08
1575319743.698865,1497.26
1575319743.707175,1487.63
1575319743.7192152,1480.72
1575319743.727684,1473.92
1575319743.735565,1468.86
1575319743.743916,1465.11
1575319743.756327,1460.84
1575319743.764957,1458.31
1575319743.772663,1458.41
1575319743.784609,1461.14
1575319743.793008,1465.44
1575319743.8010418,1468.31
1575319743.809623,1471.08
1575319743.821554,1474.41
1575319743.8306072,1477.12
1575319743.837996,1480.57
1575319743.850228,1484.81
1575319743.858619,1487.89
1575319743.86665,1490.48
1575319743.875038,1492.24
1575319743.887251,1494.83
1575319743.8986409,1498.37
1575319743.90349,1503.44
1575319743.916352,1506.9
1575319743.924159,1509.35
1575319743.9325309,1514.68
1575319743.940726,1522.92
1575319743.952599,1530.95
1575319743.9611561,1541.66
1575319743.9690099,1551.46
1575319743.981898,1557.69
1575319743.9897149,1563.9
1575319743.998771,1569.95
1575319744.0061162,1575.98
1575319744.0181298,1583.75
1575319744.0264351,1588.91
1575319744.034514,1590.9
1575319744.047668,1591.14
1575319744.055242,1589.81
1575319744.0638652,1587.39
1575319744.0716622,1581.51
1575319744.083777,1573.75
1575319744.092212,1568.43
1575319744.1003342,1563.09
1575319744.113235,1558.1
1575319744.120815,1553.35
1575319744.129448,1550.13
1575319744.1371279,1547.68
1575319744.149737,1547.08
1575319744.157681,1546.68
1575319744.1665332,1546.23
1575319744.178,1547.65
1575319744.1861591,1549.85
1575319744.1944818,1552.48
1575319744.202456,1552.9
1575319744.215869,1550.95
1575319744.223138,1546.02
1575319744.23205,1539.27
1575319744.243656,1533.06
1575319744.2517078,1525.48
1575319744.2599192,1519.32
1575319744.268055,1515.42
1575319744.281184,1511.27
1575319744.288605,1509.86
1575319744.297479,1510.87
1575319744.309129,1512.74
1575319744.3171651,1513.65
1575319744.32545,1512.97
1575319744.3336792,1510.76
1575319744.346886,1508.74
1575319744.354194,1508.33
1575319744.362916,1509.13
1575319744.3749151,1512.68
1575319744.384233,1517.55
1575319744.391055,1518.7
1575319744.3999941,1515.18
1575319744.411576,1510.35
1575319744.4196532,1509.78
1575319744.427998,1512.52
1575319744.4400709,1514.98
1575319744.448981,1515.74
1575319744.456674,1515.08
1575319744.466132,1513.03
1575319744.477151,1511.39
1575319744.485067,1511.33
1575319744.49374,1513.37
1575319744.50558,1515.28
1575319744.5141702,1517.2
1575319744.522153,1518.46
1575319744.533157,1519.21
1575319744.5426712,1518.46
1575319744.552073,1515.39
1575319744.5593011,1512.97
1575319744.5718489,1511.93
1575319744.5798452,1512.74
1575319744.587671,1512.66
1575319744.5969012,1510.82
1575319744.608211,1508.11
1575319744.6170418,1508.14
1575319744.624682,1510.88
1575319744.636659,1515.92
1575319744.645021,1518.98
1575319744.653095,1518.14
1575319744.66157,1512.47
1575319744.67369,1504.34
1575319744.682587,1498.69
1575319744.6902962,1493.83
1575319744.7023082,1490.64
1575319744.710637,1489.01
1575319744.718587,1488.95
1575319744.7271,1491.78
1575319744.7392719,1495.99
1575319744.748481,1501.92
1575319744.7556741,1506.69
1575319744.767734,1509.92
1575319744.7762718,1514.53
1575319744.784076,1519.31
1575319744.792782,1522.12
1575319744.804725,1523.63
1575319744.816788,1523.37
1575319744.820998,1522.86
1575319744.833496,1522.75
1575319744.841523,1521.9
1575319744.849986,1518.69
1575319744.857915,1514.26
1575319744.870311,1508.78
1575319744.878659,1506.74
1575319744.886643,1508.06
1575319744.8995461,1511.11
1575319744.9072971,1513.23
1575319744.915794,1514.19
1575319744.923705,1514.97
1575319744.935648,1514.8
1575319744.944084,1513.53
1575319744.952119,1510.89
1575319744.9648771,1508.24
1575319744.972799,1506.96
1575319744.9815722,1506.63
1575319744.989163,1507.32
1575319745.001204,1508.43
1575319745.0097191,1510.26
1575319745.017725,1510.97
1575319745.030493,1510.62
1575319745.0382028,1510.58
1575319745.047049,1513.31
1575319745.05475,1518.91
1575319745.066719,1523.55
1575319745.075254,1526.44
1575319745.083283,1524.41
1575319745.096537,1519.89
1575319745.103779,1512.9
1575319745.1123571,1506.21
1575319745.1201549,1501.95
1575319745.132798,1497.36
1575319745.140703,1491.92
1575319745.149598,1487.59
1575319745.16122,1485.39
1575319745.16923,1490.14
1575319745.177603,1497.94
1575319745.18549,1509.0
1575319745.198666,1517.28
1575319745.2062569,1520.63
1575319745.215029,1521.78
1575319745.226584,1522.0
1575319745.234656,1522.5
1575319745.2431018,1522.86
1575319745.251136,1522.0
1575319745.264089,1520.08
1575319745.2717881,1516.25
1575319745.281075,1512.43
1575319745.2924511,1509.45
1575319745.300245,1507.95
1575319745.308743,1507.21
1575319745.317439,1507.94
1575319745.32953,1509.78
1575319745.3371232,1513.63
1575319745.3465831,1517.58
1575319745.357833,1519.28
1575319745.365844,1519.9
1575319745.374253,1520.72
1575319745.383101,1522.43
1575319745.3946939,1526.25
1575319745.4026601,1532.16
1575319745.4110699,1538.49
1575319745.423116,1547.42
1575319745.431972,1554.01
1575319745.439731,1555.53
1575319745.448551,1553.67
1575319745.460125,1548.86
1575319745.4682398,1543.02
1575319745.476502,1533.77
1575319745.488734,1525.46
1575319745.497424,1521.63
1575319745.505012,1520.59
1575319745.514635,1522.68
1575319745.525881,1524.89
1575319745.534288,1524.95
1575319745.542212,1523.33
1575319745.554219,1521.24
1575319745.5628202,1519.63
1575319745.570721,1517.5
1575319745.5793128,1515.32
1575319745.5912619,1513.7
1575319745.5992389,1511.8
1575319745.607754,1509.93
1575319745.619721,1508.3
1575319745.628163,1506.86
1575319745.6361449,1506.81
1575319745.6445131,1506.92
1575319745.656785,1506.9
1575319745.6663659,1507.1
1575319745.673114,1507.8
1575319745.685386,1509.68
1575319745.6939049,1511.84
1575319745.701797,1513.45
1575319745.710114,1515.77
1575319745.722324,1519.74
1575319745.730857,1524.38
1575319745.7387688,1530.15
1575319745.750776,1533.77
1575319745.759298,1534.57
1575319745.767197,1533.09
1575319745.77585,1530.77
1575319745.7876868,1530.42
1575319745.796781,1532.06
1575319745.804105,1535.48
1575319745.816782,1539.43
1575319745.8245351,1542.42
1575319745.8335261,1544.98
1575319745.8408651,1545.19
1575319745.853247,1544.2
1575319745.861529,1542.35
1575319745.869577,1540.5
1575319745.882634,1539.39
1575319745.890414,1538.16
1575319745.899873,1537.28
1575319745.9067361,1536.2
1575319745.9187589,1534.6
1575319745.927259,1533.21
1575319745.935075,1532.11
1575319745.947841,1530.49
1575319745.955817,1527.58
1575319745.9646301,1523.54
1575319745.972237,1515.45
1575319745.98426,1504.44
1575319745.992694,1493.11
1575319746.000694,1485.45
1575319746.013896,1477.77
1575319746.0213509,1472.74
1575319746.0305479,1470.86
1575319746.037771,1471.61
1575319746.0498528,1475.07
1575319746.0580962,1478.27
1575319746.0666199,1480.68
1575319746.078594,1480.23
1575319746.086775,1478.17
1575319746.096045,1475.65
1575319746.103227,1476.03
1575319746.1162071,1478.73
1575319746.123761,1482.79
1575319746.133062,1484.97
1575319746.144259,1484.78
1575319746.15217,1483.96
1575319746.16078,1484.62
1575319746.1685681,1486.61
1575319746.181243,1488.24
1575319746.189302,1486.79
1575319746.198032,1483.5
1575319746.209892,1478.18
1575319746.2177632,1473.37
1575319746.226181,1470.53
1575319746.2341518,1469.6
1575319746.248151,1471.49
1575319746.254715,1477.89
1575319746.2638311,1484.78
1575319746.275193,1491.68
1575319746.283215,1494.76
1575319746.291797,1495.17
1575319746.300402,1495.34
1575319746.312165,1497.41
1575319746.320292,1500.17
1575319746.330283,1503.67
1575319746.340561,1506.06
1575319746.349615,1506.2
1575319746.356967,1503.38
1575319746.366038,1499.16
1575319746.3777862,1496.79
1575319746.3857348,1495.62
1575319746.3942149,1495.14
1575319746.406105,1494.2
1575319746.414869,1491.21
1575319746.422871,1485.74
1575319746.431981,1480.54
1575319746.4431732,1475.19
1575319746.451311,1473.43
1575319746.459763,1475.82
1575319746.471688,1479.25
1575319746.480664,1482.61
1575319746.48841,1482.99
1575319746.4969049,1482.06
1575319746.508822,1482.79
1575319746.5169249,1487.68
1575319746.5252569,1493.6
1575319746.5372531,1502.12
1575319746.546771,1511.67
1575319746.553767,1520.34
1575319746.562173,1532.95
1575319746.574204,1546.91
1575319746.583106,1557.47
1575319746.590749,1568.66
1575319746.60274,1576.72
1575319746.611298,1580.32
1575319746.6192021,1581.58
1575319746.627693,1580.95
1575319746.639842,1580.64
1575319746.6487942,1580.37
1575319746.656266,1577.5
1575319746.668274,1571.77
1575319746.676609,1560.22
1575319746.6846569,1547.01
1575319746.6930828,1537.15
1575319746.7054012,1534.0
1575319746.714067,1536.64
1575319746.721802,1544.83
1575319746.7337759,1552.82
1575319746.742275,1561.45
1575319746.750232,1565.15
1575319746.758749,1564.21
1575319746.770837,1560.38
1575319746.779665,1557.75
1575319746.7871182,1557.64
1575319746.7993999,1558.7
1575319746.807819,1558.0
1575319746.81656,1555.09
1575319746.824786,1551.19
1575319746.836527,1550.35
1575319746.844627,1551.73
1575319746.852703,1553.64
1575319746.865567,1553.88
1575319746.8734348,1552.87
1575319746.882174,1550.63
1575319746.889765,1547.99
1575319746.901736,1545.88
1575319746.9101849,1542.33
1575319746.9182541,1537.82
1575319746.931272,1533.25
1575319746.938889,1529.8
1575319746.9477398,1525.94
1575319746.955279,1522.07
1575319746.967306,1518.98
1575319746.975719,1515.75
1575319746.983726,1513.17
1575319746.997013,1511.99
1575319747.0041978,1512.08
1575319747.0139399,1513.31
1575319747.02086,1514.76
1575319747.033232,1519.32
1575319747.0414,1529.91
1575319747.0499048,1540.83
1575319747.061642,1552.0
1575319747.0697181,1556.59
1575319747.0782259,1555.66
1575319747.086145,1551.84
1575319747.0989609,1548.74
1575319747.1068642,1548.72
1575319747.116252,1550.92
1575319747.127278,1552.19
1575319747.1352372,1549.92
1575319747.1437922,1542.39
1575319747.151755,1534.52
1575319747.164643,1530.11
1575319747.172329,1527.46
1575319747.18116,1521.92
1575319747.193064,1512.98
1575319747.2007308,1505.07
1575319747.2094269,1495.74
1575319747.217762,1488.13
1575319747.2303371,1484.9
1575319747.23788,1485.49
1575319747.246998,1490.91
1575319747.254312,1497.12
1575319747.2668102,1505.44
1575319747.274671,1513.76
1575319747.2829041,1519.48
1575319747.298219,1524.73
1575319747.303186,1529.13
1575319747.311687,1533.36
1575319747.319562,1539.87
1575319747.332567,1546.43
1575319747.34011,1550.87
1575319747.349398,1553.72
1575319747.360799,1551.88
1575319747.368716,1547.99
1575319747.3770518,1543.12
1575319747.385213,1541.1
1575319747.398856,1541.36
1575319747.405781,1541.32
1575319747.4147131,1540.13
1575319747.426497,1537.55
1575319747.434315,1535.2
1575319747.442854,1532.12
1575319747.4510999,1528.95
1575319747.463798,1527.07
1575319747.4714491,1526.33
1575319747.4806,1527.2
1575319747.492022,1528.03
1575319747.500374,1528.34
1575319747.508197,1528.84
1575319747.5163991,1529.9
1575319747.528733,1532.51
1575319747.536771,1539.03
1575319747.545014,1546.97
1575319747.5572412,1557.34
1575319747.566128,1565.32
1575319747.573745,1570.21
1575319747.5822878,1576.32
1575319747.594272,1583.03
1575319747.6022341,1588.56
1575319747.610702,1594.04
1575319747.622758,1596.89
1575319747.6317198,1597.73
1575319747.6393101,1598.2
1575319747.6478112,1599.45
1575319747.659895,1601.62
1575319747.669386,1603.99
1575319747.676169,1605.86
1575319747.68826,1604.49
1575319747.6980648,1601.07
1575319747.704542,1595.51
1575319747.714721,1590.04
1575319747.72556,1586.47
1575319747.733482,1583.63
1575319747.7417972,1584.36
1575319747.753747,1589.37
1575319747.762104,1601.15
1575319747.7703629,1617.27
1575319747.778702,1630.89
1575319747.790893,1646.38
1575319747.799637,1659.32
1575319747.807353,1668.42
1575319747.819361,1679.59
1575319747.8282309,1687.76
1575319747.835731,1689.72
1575319747.8441548,1686.3
1575319747.856278,1677.83
1575319747.865023,1665.43
1575319747.872583,1653.57
1575319747.8848279,1636.82
1575319747.893124,1617.62
1575319747.901255,1599.94
1575319747.909795,1575.81
1575319747.921928,1552.8
1575319747.930673,1537.6
1575319747.9384131,1523.95
1575319747.950322,1515.83
1575319747.958772,1511.51
1575319747.9669602,1505.86
1575319747.975272,1497.82
1575319747.987205,1489.22
1575319747.996382,1477.75
1575319748.003683,1470.69
1575319748.01811,1470.22
1575319748.024381,1472.51
1575319748.0328388,1473.55
1575319748.040742,1472.63
1575319748.0527282,1470.27
1575319748.061335,1468.35
1575319748.06924,1468.34
1575319748.082154,1470.59
1575319748.089897,1475.3
1575319748.098507,1481.62
1575319748.106273,1487.28
1575319748.118332,1493.65
1575319748.126823,1497.5
1575319748.134791,1497.9
1575319748.147101,1494.88
1575319748.1554172,1489.85
1575319748.1642811,1486.83
1575319748.171832,1487.04
1575319748.18382,1491.4
1575319748.1923048,1496.24
1575319748.2002409,1501.68
1575319748.2136698,1504.09
1575319748.220893,1503.51
1575319748.230051,1501.2
1575319748.237356,1499.04
1575319748.249486,1498.43
1575319748.2578292,1499.0
1575319748.26738,1500.49
1575319748.278225,1502.08
1575319748.2862668,1504.3
1575319748.297121,1506.47
1575319748.302615,1507.76
1575319748.316169,1508.32
1575319748.323445,1509.05
1575319748.332063,1511.67
1575319748.343678,1515.77
1575319748.3517408,1522.37
1575319748.360141,1527.27
1575319748.368339,1527.51
1575319748.381145,1522.48
1575319748.388906,1514.03
1575319748.397847,1507.65
1575319748.409638,1502.43
1575319748.417351,1501.93
1575319748.425843,1504.32
1575319748.43424,1509.47
1575319748.44702,1514.6
1575319748.454357,1517.6
1575319748.463691,1520.32
1575319748.47508,1522.93
1575319748.483973,1525.78
1575319748.491297,1530.19
1575319748.499443,1533.62
1575319748.511751,1534.73
1575319748.5198,1534.83
1575319748.52812,1534.49
1575319748.5403469,1534.45
1575319748.5502741,1534.51
1575319748.556818,1534.25
1575319748.565587,1534.1
1575319748.577309,1534.99
1575319748.585321,1537.99
1575319748.593617,1541.62
1575319748.6058419,1543.38
1575319748.614679,1543.31
1575319748.622466,1541.94
1575319748.630962,1540.87
1575319748.643044,1540.5
1575319748.650933,1541.6
1575319748.6594,1543.95
1575319748.671251,1548.38
1575319748.680202,1553.06
1575319748.6878028,1555.07
1575319748.6985412,1554.25
1575319748.7083929,1550.96
1575319748.716376,1547.68
1575319748.724868,1544.16
1575319748.736817,1542.45
1575319748.7451992,1542.41
1575319748.753186,1543.18
1575319748.76175,1544.05
1575319748.773818,1544.09
1575319748.7824798,1542.91
1575319748.7904031,1540.81
1575319748.802382,1538.72
1575319748.8108318,1538.0
1575319748.818753,1538.81
1575319748.827069,1540.46
1575319748.8393989,1541.35
1575319748.8494852,1540.48
1575319748.855625,1536.99
1575319748.8678138,1533.45
1575319748.8762429,1529.72
1575319748.884238,1526.5
1575319748.89279,1524.04
1575319748.9049091,1521.32
1575319748.9148731,1517.94
1575319748.9211352,1514.62
1575319748.933824,1510.36
1575319748.941855,1506.83
1575319748.950251,1505.94
1575319748.958288,1508.59
1575319748.970431,1514.82
1575319748.978816,1520.77
1575319748.986728,1527.02
1575319748.999431,1531.32
1575319749.0074182,1533.66
1575319749.016191,1535.5
1575319749.02377,1536.94
1575319749.0357602,1538.48
1575319749.044511,1540.39
1575319749.0522509,1543.84
1575319749.064998,1546.36
1575319749.072952,1545.63
1575319749.081505,1540.34
1575319749.0893419,1531.57
1575319749.101377,1524.33
1575319749.109859,1517.68
1575319749.117745,1514.25
1575319749.1308339,1513.73
1575319749.1383958,1515.21
1575319749.1473222,1517.96
1575319749.154894,1520.72
1575319749.16689,1523.95
1575319749.17538,1525.76
1575319749.1844108,1525.4
1575319749.196939,1521.53
1575319749.2039402,1515.49
1575319749.212262,1512.67
1575319749.2203178,1514.51
1575319749.233104,1520.61
1575319749.24091,1525.73
1575319749.250657,1529.27
1575319749.2615051,1528.7
1575319749.269367,1525.67
1575319749.278232,1522.59
1575319749.285671,1519.46
1575319749.298512,1517.62
1575319749.306422,1517.37
1575319749.315145,1517.43
1575319749.326765,1515.75
1575319749.334805,1512.53
1575319749.343194,1507.37
1575319749.351265,1501.98
1575319749.364377,1498.05
1575319749.371725,1494.14
1575319749.380713,1491.39
1575319749.392603,1488.32
1575319749.400932,1480.48
1575319749.4088802,1469.29
1575319749.417869,1460.02
1575319749.429878,1450.8
1575319749.437402,1446.0
1575319749.446739,1444.99
1575319749.458143,1446.7
1575319749.467068,1450.33
1575319749.474468,1454.18
1575319749.4829829,1459.24
1575319749.498276,1462.97
1575319749.50309,1464.8
1575319749.5112908,1465.11
1575319749.523283,1464.62
1575319749.5322618,1463.74
1575319749.5399108,1463.26
1575319749.5482612,1463.01
1575319749.560375,1463.38
1575319749.568355,1464.71
1575319749.576572,1467.84
1575319749.588767,1471.64
1575319749.597049,1475.38
1575319749.605236,1480.65
1575319749.613537,1486.42
1575319749.6256151,1491.25
1575319749.6340952,1496.91
1575319749.64213,1501.21
1575319749.6544,1502.88
1575319749.662668,1502.43
1575319749.670804,1500.16
1575319749.679177,1497.68
1575319749.691232,1494.72
1575319749.700161,1492.4
1575319749.707542,1490.9
1575319749.719857,1489.53
1575319749.728089,1488.78
1575319749.736442,1489.22
1575319749.74487,1491.1
1575319749.756707,1495.17
1575319749.765902,1499.67
1575319749.773219,1502.56
1575319749.785432,1503.49
1575319749.793531,1500.52
1575319749.8017821,1496.11
1575319749.809983,1489.53
1575319749.8222542,1484.56
1575319749.8309,1483.32
1575319749.839041,1484.52
1575319749.85289,1486.71
1575319749.8592799,1488.27
1575319749.86835,1490.49
1575319749.875603,1494.12
1575319749.8877828,1497.7
1575319749.8988612,1501.47
1575319749.904286,1503.34
1575319749.917377,1504.04
1575319749.9246578,1504.73
1575319749.933917,1504.99
1575319749.9411561,1504.98
1575319749.953269,1504.3
1575319749.961558,1501.64
1575319749.9698,1495.96
1575319749.982711,1490.23
1575319749.9901462,1484.31
1575319749.999407,1480.73
1575319750.006616,1479.61
1575319750.0188959,1478.97
1575319750.027222,1477.0
1575319750.035409,1474.18
1575319750.0489678,1470.42
1575319750.0558631,1467.94
1575319750.064652,1467.53
1575319750.072235,1468.94
1575319750.084754,1472.16
1575319750.0925992,1475.63
1575319750.101266,1479.79
1575319750.113794,1482.22
1575319750.121221,1481.79
1575319750.1294951,1479.64
1575319750.1380212,1478.5
1575319750.151414,1478.92
1575319750.158141,1479.52
1575319750.167011,1478.6
1575319750.178636,1476.84
1575319750.186817,1473.26
1575319750.195076,1469.83
1575319750.203338,1469.07
