1575320109.0076191,0.0
1575320109.0105999,0.0
1575320109.018513,0.0
1575320109.0232,0.0
1575320109.0308769,0.0
1575320109.0352159,0.0
1575320109.043808,0.0
1575320109.047389,0.0
1575320109.055552,15.58
1575320109.06379,15.58
1575320109.071885,15.58
1575320109.0764549,60.3
1575320109.084355,167.23
1575320109.092491,412.82
1575320109.10048,658.8
1575320109.1100118,818.71
1575320109.120988,949.11
1575320109.129243,1056.15
1575320109.137485,1163.2
1575320109.145622,1232.74
1575320109.158297,1304.38
1575320109.166087,1363.73
1575320109.174708,1403.71
1575320109.18676,1443.95
1575320109.195338,1474.45
1575320109.20299,1496.63
1575320109.211313,1509.25
1575320109.224962,1519.2
1575320109.2315562,1523.65
1575320109.241406,1524.57
1575320109.2521431,1526.1
1575320109.260437,1530.95
1575320109.2685492,1537.28
1575320109.276832,1545.47
1575320109.289227,1551.36
1575320109.29718,1553.64
1575320109.305386,1553.71
1575320109.31777,1552.52
1575320109.3259342,1552.14
1575320109.33394,1553.91
1575320109.342443,1557.74
1575320109.35456,1560.46
1575320109.362725,1562.16
1575320109.37104,1562.79
1575320109.3831098,1564.1
1575320109.391707,1567.26
1575320109.39987,1570.4
1575320109.409442,1571.82
1575320109.420087,1571.38
1575320109.4282382,1569.14
1575320109.4367092,1566.58
1575320109.448755,1565.45
1575320109.457899,1565.54
1575320109.465077,1567.3
1575320109.4749,1569.08
1575320109.485548,1569.5
1575320109.49375,1566.65
1575320109.5024111,1562.83
1575320109.5143309,1558.58
1575320109.522594,1556.12
1575320109.530824,1555.73
1575320109.5391319,1556.4
1575320109.551198,1556.94
1575320109.559762,1556.2
1575320109.567581,1553.25
1575320109.576127,1548.49
1575320109.5890071,1543.97
1575320109.5961442,1538.53
1575320109.604374,1535.58
1575320109.616904,1536.1
1575320109.6259341,1538.75
1575320109.63327,1540.89
1575320109.645421,1540.36
1575320109.653863,1536.78
1575320109.661881,1531.46
1575320109.670248,1525.25
1575320109.6824179,1520.55
1575320109.691673,1516.3
1575320109.698708,1515.74
1575320109.7076979,1518.78
1575320109.719396,1525.37
1575320109.72736,1532.85
1575320109.735571,1538.92
1575320109.747796,1545.84
1575320109.7579992,1551.92
1575320109.764213,1556.13
1575320109.773292,1560.36
1575320109.784933,1564.74
1575320109.794028,1568.26
1575320109.8012211,1571.15
1575320109.8132968,1571.26
1575320109.8232472,1568.79
1575320109.829675,1563.93
1575320109.838932,1559.32
1575320109.850369,1556.5
1575320109.858477,1553.58
1575320109.866743,1551.69
1575320109.878931,1551.35
1575320109.887271,1551.3
1575320109.8953001,1550.69
1575320109.9035368,1548.4
1575320109.915949,1545.67
1575320109.9253619,1541.92
1575320109.932229,1539.6
1575320109.9443882,1539.27
1575320109.952868,1538.62
1575320109.960841,1535.59
1575320109.969408,1530.91
1575320109.981431,1523.39
1575320109.990386,1515.04
1575320109.997757,1507.93
1575320110.009797,1499.83
1575320110.018063,1493.83
1575320110.0262341,1490.56
1575320110.034765,1487.2
1575320110.046817,1484.85
1575320110.056108,1484.72
1575320110.063214,1487.25
1575320110.075341,1491.82
1575320110.0838,1495.11
1575320110.0918279,1496.58
1575320110.10021,1497.32
1575320110.112422,1502.08
1575320110.12077,1516.29
1575320110.128753,1538.15
1575320110.141671,1561.2
1575320110.149413,1575.14
1575320110.158297,1584.4
1575320110.1656299,1586.84
1575320110.177972,1587.54
1575320110.186205,1588.89
1575320110.1942332,1591.55
1575320110.207405,1593.68
1575320110.214813,1595.29
1575320110.224263,1595.64
1575320110.231242,1596.5
1575320110.243316,1600.59
1575320110.251738,1605.16
1575320110.259739,1605.69
1575320110.272833,1602.2
1575320110.280426,1596.98
1575320110.289907,1593.96
1575320110.296874,1590.53
1575320110.3088481,1579.3
1575320110.3173811,1564.86
1575320110.325564,1551.1
1575320110.337746,1545.38
1575320110.345788,1535.6
1575320110.355284,1508.78
1575320110.362373,1470.43
1575320110.3750231,1421.31
1575320110.3827908,1373.37
1575320110.391484,1306.21
1575320110.4031758,1239.98
1575320110.411228,1194.13
1575320110.4196632,1145.15
1575320110.427645,1105.82
1575320110.441374,1084.92
1575320110.44844,1074.72
1575320110.457985,1082.05
1575320110.468699,1098.78
1575320110.4767659,1125.93
1575320110.4852512,1148.3
1575320110.493222,1157.98
1575320110.506351,1161.33
1575320110.5139232,1163.02
1575320110.5226612,1168.57
1575320110.53432,1183.28
1575320110.542409,1203.89
1575320110.550574,1220.06
1575320110.5588381,1235.44
1575320110.571178,1246.09
1575320110.5793889,1254.51
1575320110.588089,1269.43
1575320110.600081,1291.09
1575320110.608768,1315.08
1575320110.6163142,1331.37
1575320110.624803,1346.19
1575320110.636678,1357.64
1575320110.644722,1367.27
1575320110.6531358,1381.08
1575320110.665317,1394.35
1575320110.674402,1402.38
1575320110.681932,1409.17
1575320110.692539,1414.39
1575320110.702327,1419.25
1575320110.710248,1426.65
1575320110.718775,1434.49
1575320110.7310028,1441.63
1575320110.740694,1453.25
1575320110.7474508,1466.84
1575320110.756232,1476.83
1575320110.768022,1486.38
1575320110.776308,1492.34
1575320110.784354,1494.53
1575320110.796417,1493.26
1575320110.805213,1489.65
1575320110.8128471,1488.75
1575320110.8212821,1490.71
1575320110.833407,1492.85
1575320110.84175,1492.57
1575320110.8498182,1490.66
1575320110.861897,1487.49
1575320110.870131,1484.6
1575320110.87855,1482.94
1575320110.886636,1482.45
1575320110.898916,1484.99
1575320110.908291,1489.09
1575320110.9152799,1495.58
1575320110.9273589,1502.98
1575320110.935939,1509.7
1575320110.9438238,1518.26
1575320110.952131,1524.88
1575320110.9645069,1528.44
1575320110.973119,1531.63
1575320110.980948,1533.9
1575320110.993552,1536.41
1575320111.0014248,1541.95
1575320111.009241,1546.99
1575320111.017707,1548.29
1575320111.0301518,1545.52
1575320111.0384152,1539.82
1575320111.046186,1535.43
1575320111.058423,1532.53
1575320111.066834,1532.97
1575320111.075161,1534.63
1575320111.0832572,1536.0
1575320111.095433,1537.39
1575320111.103821,1538.53
1575320111.11182,1539.42
1575320111.124937,1539.93
1575320111.132488,1539.73
1575320111.1423712,1541.92
1575320111.1487958,1552.23
1575320111.1608682,1572.22
1575320111.169439,1592.41
1575320111.177323,1617.43
1575320111.190346,1637.84
1575320111.197922,1650.46
1575320111.206618,1663.38
1575320111.21436,1672.68
1575320111.2263281,1676.75
1575320111.2349062,1680.97
1575320111.242749,1688.05
1575320111.2562938,1694.23
1575320111.263368,1696.26
1575320111.272309,1687.49
1575320111.279914,1672.59
1575320111.292156,1649.98
1575320111.300471,1636.98
1575320111.308347,1639.44
1575320111.3208709,1643.3
1575320111.328831,1643.31
1575320111.337111,1640.6
1575320111.34537,1634.71
1575320111.358573,1622.27
1575320111.365909,1611.62
1575320111.374965,1606.95
1575320111.386334,1600.58
1575320111.394343,1590.69
1575320111.402962,1582.68
1575320111.410752,1574.48
1575320111.4247072,1566.75
1575320111.431435,1560.64
1575320111.440501,1555.16
1575320111.451778,1549.55
1575320111.459816,1542.04
1575320111.468127,1532.17
1575320111.476234,1528.1
1575320111.489821,1529.09
1575320111.4967349,1532.23
1575320111.505588,1535.3
1575320111.5174458,1536.28
1575320111.5254788,1534.6
1575320111.5336902,1531.33
1575320111.5418398,1529.66
1575320111.555237,1530.61
1575320111.5624268,1533.63
1575320111.570593,1536.2
1575320111.583118,1537.46
1575320111.591872,1539.47
1575320111.599329,1541.6
1575320111.6079109,1542.48
1575320111.619877,1542.28
1575320111.6279209,1542.04
1575320111.6363132,1542.84
1575320111.648347,1544.39
1575320111.658039,1545.44
1575320111.66492,1545.39
1575320111.67386,1544.5
1575320111.6852748,1543.29
1575320111.693293,1543.01
1575320111.701673,1544.08
1575320111.713877,1546.24
1575320111.7228742,1548.24
1575320111.730397,1549.55
1575320111.739226,1547.2
1575320111.750877,1542.96
1575320111.758924,1537.12
1575320111.767456,1533.05
1575320111.779337,1531.27
1575320111.788596,1530.2
1575320111.7959208,1528.36
1575320111.804394,1525.35
1575320111.81642,1521.68
1575320111.8249989,1516.67
1575320111.8328478,1514.01
1575320111.844787,1514.32
1575320111.853379,1516.27
1575320111.861328,1518.57
1575320111.869738,1520.22
1575320111.881979,1521.85
1575320111.891028,1522.61
1575320111.8984609,1522.72
1575320111.910434,1523.8
1575320111.919005,1526.83
1575320111.926912,1530.91
1575320111.935172,1536.96
1575320111.9475389,1541.84
1575320111.9564312,1544.45
1575320111.963949,1547.4
1575320111.9759538,1550.15
1575320111.984576,1551.67
1575320111.9923232,1552.26
1575320112.0008,1552.64
1575320112.013068,1554.15
1575320112.024446,1556.19
1575320112.0291772,1560.11
1575320112.0418549,1566.52
1575320112.049761,1574.18
1575320112.059123,1586.35
1575320112.066318,1597.47
1575320112.078579,1603.26
1575320112.0868201,1606.25
1575320112.094982,1605.92
1575320112.108469,1603.67
1575320112.115412,1599.17
1575320112.124419,1594.62
1575320112.131893,1591.65
1575320112.143896,1588.8
1575320112.152322,1586.86
1575320112.160274,1586.83
1575320112.173849,1588.84
1575320112.1809359,1592.82
1575320112.190038,1597.46
1575320112.197453,1603.18
1575320112.20941,1605.31
1575320112.217969,1603.83
1575320112.225842,1599.74
1575320112.238745,1595.06
1575320112.246481,1590.05
1575320112.2556229,1585.51
1575320112.262781,1578.46
1575320112.2754261,1569.87
1575320112.283427,1562.48
1575320112.291929,1553.1
1575320112.303828,1545.17
1575320112.311813,1542.0
1575320112.320401,1543.04
1575320112.328282,1547.58
1575320112.341441,1550.93
1575320112.3490078,1552.95
1575320112.358593,1552.06
1575320112.36956,1549.74
1575320112.377398,1547.11
1575320112.385747,1546.05
1575320112.393748,1545.64
1575320112.4069629,1544.47
1575320112.414473,1543.77
1575320112.4231339,1544.94
1575320112.4350731,1547.77
1575320112.4429078,1550.8
1575320112.451606,1553.32
1575320112.45954,1556.5
1575320112.4724631,1558.79
1575320112.480025,1558.88
1575320112.489588,1557.44
1575320112.5005288,1555.73
1575320112.509092,1556.32
1575320112.5171762,1558.51
1575320112.525077,1561.97
1575320112.53722,1563.71
1575320112.545279,1563.19
1575320112.553765,1561.92
1575320112.565932,1562.77
1575320112.57443,1565.85
1575320112.5825121,1571.47
1575320112.593007,1576.56
1575320112.603019,1578.36
1575320112.610902,1577.06
1575320112.6193228,1573.2
1575320112.631555,1570.37
1575320112.640531,1568.28
1575320112.6479812,1566.67
1575320112.6571698,1565.22
1575320112.668318,1562.75
1575320112.6763468,1559.09
1575320112.685009,1555.27
1575320112.696841,1550.11
1575320112.706666,1545.9
1575320112.713436,1541.45
1575320112.7251241,1536.52
1575320112.733917,1529.26
1575320112.741875,1523.1
1575320112.750547,1519.93
1575320112.762648,1517.36
1575320112.771498,1516.39
1575320112.77898,1516.77
1575320112.787344,1517.0
1575320112.7994912,1514.44
1575320112.808286,1510.15
1575320112.815973,1504.45
1575320112.8280718,1501.14
1575320112.836509,1500.93
1575320112.844417,1503.07
1575320112.852844,1506.12
1575320112.865085,1508.14
1575320112.874298,1511.7
1575320112.881332,1519.57
1575320112.893489,1529.04
1575320112.9017978,1544.27
1575320112.9098601,1563.9
1575320112.918401,1579.61
1575320112.93053,1592.67
1575320112.939636,1594.74
1575320112.946997,1587.2
1575320112.9591732,1577.39
1575320112.967402,1566.2
1575320112.975353,1560.76
1575320112.983933,1561.67
1575320112.995988,1569.25
1575320113.0043252,1579.97
1575320113.0122602,1585.86
1575320113.025215,1586.58
1575320113.033008,1582.95
1575320113.041793,1580.08
1575320113.0492978,1577.33
1575320113.061352,1573.46
1575320113.0697489,1566.52
1575320113.077761,1550.41
1575320113.091449,1528.08
1575320113.0984561,1510.07
1575320113.1081111,1492.36
1575320113.114882,1481.15
1575320113.126924,1476.6
1575320113.13539,1473.95
1575320113.143475,1470.6
1575320113.156941,1466.56
1575320113.1641102,1460.99
1575320113.173196,1455.41
1575320113.18046,1449.67
1575320113.1924212,1445.55
1575320113.2010398,1442.45
1575320113.208887,1443.0
1575320113.2220852,1445.62
1575320113.22953,1450.56
1575320113.237799,1455.53
1575320113.245806,1457.88
1575320113.258049,1457.6
1575320113.2665431,1455.34
1575320113.275729,1454.31
1575320113.286866,1454.55
1575320113.2948868,1457.85
1575320113.303416,1464.19
1575320113.311369,1475.8
1575320113.324866,1486.66
1575320113.332014,1492.22
1575320113.341432,1494.4
1575320113.352473,1493.23
1575320113.360516,1491.8
1575320113.368832,1489.42
1575320113.37678,1488.61
1575320113.3898711,1492.08
1575320113.397491,1503.87
1575320113.40678,1520.75
1575320113.418268,1536.74
1575320113.426004,1546.97
1575320113.434577,1555.22
1575320113.44303,1557.74
1575320113.4558778,1558.46
1575320113.4631622,1562.04
1575320113.472855,1568.28
1575320113.483671,1573.03
1575320113.4921012,1575.64
1575320113.499857,1573.34
1575320113.508327,1569.52
1575320113.520777,1563.59
1575320113.528379,1557.48
1575320113.536673,1554.42
1575320113.548888,1553.38
1575320113.5577621,1552.61
1575320113.5653188,1550.4
1575320113.575225,1545.08
1575320113.586041,1537.86
1575320113.59393,1532.07
1575320113.602429,1527.38
1575320113.614389,1526.73
1575320113.624948,1527.61
1575320113.6310349,1527.87
1575320113.639731,1527.54
1575320113.651638,1528.45
1575320113.659497,1529.81
1575320113.6680162,1530.2
1575320113.679886,1527.65
1575320113.689412,1523.77
1575320113.696328,1517.15
1575320113.705131,1509.7
1575320113.717074,1504.91
1575320113.725642,1502.42
1575320113.733378,1502.7
1575320113.7455392,1503.26
1575320113.753844,1504.27
1575320113.761874,1505.9
1575320113.770259,1506.96
1575320113.7825449,1507.66
1575320113.791948,1507.92
1575320113.7989051,1508.52
1575320113.8110452,1510.78
1575320113.819571,1514.64
1575320113.8273768,1518.28
1575320113.835784,1521.31
1575320113.8481028,1522.11
1575320113.856979,1522.14
1575320113.8645551,1522.85
1575320113.876556,1526.08
1575320113.884985,1531.4
1575320113.8930418,1535.93
1575320113.901622,1540.44
1575320113.9135292,1541.47
1575320113.923025,1539.56
1575320113.9297879,1535.02
1575320113.9419892,1529.76
1575320113.950547,1525.69
1575320113.95906,1520.88
1575320113.967008,1517.02
1575320113.9790761,1515.34
1575320113.9874759,1513.97
1575320113.995405,1511.93
1575320114.003663,1510.23
1575320114.016053,1509.52
1575320114.026877,1511.49
1575320114.032375,1514.1
1575320114.044436,1517.2
1575320114.052907,1518.11
1575320114.060859,1516.93
1575320114.069254,1514.21
1575320114.08158,1511.24
1575320114.0913322,1508.66
1575320114.097982,1505.32
1575320114.11004,1504.38
1575320114.1184142,1508.69
1575320114.1264179,1515.66
1575320114.134985,1526.48
1575320114.147119,1536.21
1575320114.15654,1541.6
1575320114.163315,1544.65
1575320114.175471,1545.24
1575320114.184083,1546.06
1575320114.1924102,1548.22
1575320114.2003672,1550.11
1575320114.2125819,1550.25
1575320114.220953,1547.9
1575320114.228898,1543.04
1575320114.2416692,1538.14
1575320114.249577,1531.99
1575320114.2585511,1527.91
1575320114.265866,1526.92
1575320114.277972,1528.01
1575320114.286588,1528.91
1575320114.294539,1527.75
1575320114.307644,1523.03
1575320114.315043,1516.01
1575320114.324521,1510.6
1575320114.331477,1506.14
1575320114.343486,1506.1
1575320114.3517902,1510.52
1575320114.3599172,1515.88
1575320114.3742259,1522.23
1575320114.380534,1524.88
1575320114.3895628,1523.61
1575320114.397027,1519.44
1575320114.409051,1516.73
1575320114.41746,1518.37
1575320114.425451,1525.21
1575320114.437918,1532.94
1575320114.446047,1537.18
1575320114.4542542,1539.39
1575320114.4624481,1538.66
1575320114.474966,1536.64
1575320114.4830022,1533.42
1575320114.491603,1530.73
1575320114.503615,1529.49
1575320114.511425,1529.33
1575320114.5215979,1529.55
1575320114.527883,1529.83
1575320114.541593,1531.36
1575320114.548398,1534.49
1575320114.558156,1536.69
1575320114.568969,1537.99
1575320114.576991,1539.5
1575320114.58533,1541.68
1575320114.593317,1544.05
1575320114.606753,1548.52
1575320114.614101,1554.02
1575320114.623046,1558.24
1575320114.6347158,1562.04
1575320114.642955,1564.48
1575320114.6510231,1565.84
1575320114.659111,1566.39
1575320114.6731,1564.3
1575320114.679542,1561.31
1575320114.687923,1560.29
1575320114.700144,1568.86
1575320114.708077,1583.29
1575320114.716522,1604.9
1575320114.726058,1622.34
1575320114.736819,1628.99
1575320114.744969,1627.63
1575320114.7534819,1619.87
1575320114.765481,1612.89
1575320114.7750661,1605.36
1575320114.7819872,1599.95
1575320114.791167,1596.98
1575320114.802419,1594.48
1575320114.810773,1591.93
1575320114.8187509,1588.4
1575320114.8309839,1585.44
1575320114.840016,1582.75
1575320114.8475718,1582.56
1575320114.857098,1585.05
1575320114.8681002,1590.66
1575320114.876052,1596.9
1575320114.884442,1600.17
1575320114.896533,1601.07
1575320114.905428,1600.81
1575320114.912884,1601.88
1575320114.9217842,1605.43
1575320114.933577,1610.97
1575320114.942664,1616.65
1575320114.949902,1626.22
1575320114.961996,1636.76
1575320114.970489,1642.9
1575320114.978477,1646.97
1575320114.986927,1647.27
1575320114.99907,1644.5
1575320115.0088818,1636.61
1575320115.015475,1626.32
1575320115.027764,1618.91
1575320115.035972,1612.71
1575320115.0439382,1611.98
1575320115.052416,1613.45
1575320115.064394,1612.41
1575320115.074198,1605.44
1575320115.080844,1591.67
1575320115.093033,1577.67
1575320115.101641,1560.48
1575320115.109489,1546.27
1575320115.1181,1537.02
1575320115.130007,1526.81
1575320115.139055,1517.43
1575320115.1465302,1510.72
1575320115.158568,1501.34
1575320115.167101,1488.14
1575320115.1755798,1476.17
1575320115.183191,1464.78
1575320115.1956139,1459.66
1575320115.203965,1459.26
1575320115.211898,1462.81
1575320115.2245288,1467.2
1575320115.232629,1467.98
1575320115.241481,1465.72
1575320115.2489128,1462.12
1575320115.260972,1459.43
1575320115.269579,1459.86
1575320115.277536,1464.78
1575320115.290904,1467.35
1575320115.298048,1463.83
1575320115.306922,1454.52
1575320115.314563,1448.07
1575320115.326556,1450.32
1575320115.335124,1464.37
1575320115.34346,1490.39
1575320115.355861,1513.73
1575320115.363751,1530.97
1575320115.3722,1523.97
1575320115.380011,1505.05
1575320115.392095,1482.36
1575320115.4004962,1470.04
1575320115.408844,1462.18
1575320115.420862,1447.85
1575320115.429017,1427.81
1575320115.437303,1411.61
1575320115.445533,1398.54
1575320115.4582882,1397.39
1575320115.466126,1400.21
1575320115.476314,1396.35
1575320115.4863942,1378.56
1575320115.494456,1361.6
1575320115.503034,1349.78
1575320115.51103,1351.14
1575320115.5256991,1359.14
1575320115.5316281,1365.36
1575320115.5405922,1370.31
1575320115.551888,1373.48
1575320115.5603049,1377.12
1575320115.568363,1384.87
1575320115.576454,1394.98
1575320115.5894568,1403.24
1575320115.597047,1412.99
1575320115.6063712,1422.2
1575320115.617633,1429.64
1575320115.6262798,1438.86
1575320115.634017,1447.4
1575320115.641941,1452.85
1575320115.654289,1456.99
1575320115.663038,1459.1
1575320115.671684,1460.59
1575320115.683309,1463.9
1575320115.692201,1470.07
1575320115.699568,1477.31
1575320115.708693,1488.17
1575320115.7199202,1498.59
1575320115.727961,1505.89
1575320115.7365088,1512.78
1575320115.74842,1516.53
1575320115.758118,1518.13
1575320115.7651541,1519.0
1575320115.775189,1521.32
1575320115.7853801,1525.24
1575320115.793497,1529.43
1575320115.8019788,1535.01
1575320115.8139882,1538.6
1575320115.8232388,1538.45
1575320115.8306592,1534.7
1575320115.839537,1528.83
1575320115.8511171,1524.26
1575320115.859583,1520.84
1575320115.867417,1522.08
1575320115.879578,1525.69
1575320115.888,1532.38
1575320115.8959382,1543.82
1575320115.904227,1557.78
1575320115.9166121,1578.17
1575320115.9250188,1596.92
1575320115.9330409,1609.81
1575320115.945081,1625.44
1575320115.953561,1640.94
1575320115.961493,1651.42
1575320115.9699252,1659.37
1575320115.982107,1661.44
1575320115.991063,1660.44
1575320115.9986482,1659.46
1575320116.0106602,1659.28
1575320116.018809,1660.46
1575320116.0269299,1662.0
1575320116.035439,1664.34
1575320116.047494,1665.33
1575320116.056621,1661.98
1575320116.06388,1649.25
1575320116.076299,1629.87
1575320116.084608,1614.8
1575320116.092575,1601.74
1575320116.101115,1594.91
1575320116.113141,1590.13
1575320116.121482,1582.2
1575320116.1294348,1572.39
1575320116.1419961,1563.67
1575320116.1500711,1553.15
1575320116.158496,1544.42
1575320116.166254,1538.92
1575320116.1784341,1533.65
1575320116.1867,1529.19
1575320116.194963,1525.18
1575320116.2089002,1518.76
1575320116.215553,1512.92
1575320116.2253911,1511.27
1575320116.231955,1513.09
1575320116.244052,1516.14
1575320116.2525032,1517.95
1575320116.260443,1518.31
1575320116.27359,1518.26
1575320116.281238,1518.22
1575320116.2902431,1518.48
1575320116.297398,1518.53
1575320116.309719,1517.95
1575320116.318165,1517.32
1575320116.325978,1516.79
1575320116.339165,1517.96
1575320116.3465228,1520.17
1575320116.355335,1523.37
1575320116.3631308,1525.69
1575320116.375257,1526.47
1575320116.383567,1525.73
1575320116.3923578,1522.12
1575320116.404167,1517.49
1575320116.412071,1511.08
1575320116.420533,1505.93
1575320116.428424,1503.66
1575320116.441547,1502.48
1575320116.449176,1501.38
1575320116.4590778,1498.86
1575320116.469569,1496.28
1575320116.477605,1494.23
1575320116.485981,1494.12
1575320116.493957,1494.81
1575320116.508085,1495.29
1575320116.514369,1494.97
1575320116.523324,1494.53
1575320116.534912,1495.08
1575320116.543064,1498.43
1575320116.5514162,1502.34
1575320116.559614,1507.74
1575320116.5726562,1513.26
1575320116.580106,1517.63
1575320116.5892632,1522.78
1575320116.60081,1526.5
1575320116.609298,1528.5
1575320116.6168058,1531.29
1575320116.624995,1534.42
1575320116.6375098,1535.81
1575320116.645545,1534.61
1575320116.653898,1530.77
1575320116.666147,1527.45
1575320116.675363,1525.46
1575320116.6825888,1526.85
1575320116.691527,1527.82
1575320116.703124,1524.98
1575320116.711112,1517.1
1575320116.719594,1507.7
1575320116.731536,1501.1
1575320116.7409852,1495.33
1575320116.748082,1491.58
1575320116.757387,1488.9
1575320116.7686641,1485.2
1575320116.776619,1482.29
1575320116.785043,1480.91
1575320116.797072,1481.14
1575320116.8073459,1483.96
1575320116.8134248,1486.95
1575320116.822599,1490.11
1575320116.8342972,1491.96
1575320116.842154,1493.87
1575320116.850782,1498.32
1575320116.86251,1504.41
1575320116.8710551,1509.61
1575320116.879058,1516.12
1575320116.888615,1522.76
1575320116.8997152,1528.49
1575320116.909568,1535.78
1575320116.915981,1542.19
1575320116.928214,1546.25
1575320116.936373,1548.13
1575320116.9445398,1550.07
1575320116.952964,1551.39
1575320116.965183,1551.78
1575320116.9744918,1551.24
1575320116.981507,1550.37
1575320116.993634,1549.8
1575320117.0020669,1548.63
1575320117.010012,1547.5
1575320117.018568,1548.01
1575320117.0306392,1551.61
1575320117.040781,1557.6
1575320117.0469031,1562.01
1575320117.059238,1564.87
1575320117.06745,1564.47
1575320117.075658,1563.08
1575320117.084022,1561.76
1575320117.0961769,1561.93
1575320117.104515,1562.73
1575320117.1124961,1563.62
1575320117.124823,1564.32
1575320117.133204,1564.82
1575320117.1429272,1565.94
1575320117.1495411,1567.46
1575320117.161725,1568.46
1575320117.170122,1568.54
1575320117.1780732,1568.24
1575320117.1916668,1568.09
1575320117.198617,1567.92
1575320117.208076,1567.54
1575320117.214999,1566.25
1575320117.227233,1564.71
1575320117.235513,1563.08
1575320117.243566,1562.21
1575320117.256707,1562.06
1575320117.264241,1562.39
1575320117.273519,1562.1
1575320117.280666,1559.91
1575320117.2926521,1553.57
1575320117.3009632,1544.97
1575320117.309109,1539.49
1575320117.323335,1537.03
1575320117.329685,1539.1
1575320117.338586,1541.64
1575320117.346007,1543.03
1575320117.35836,1542.12
1575320117.366622,1541.3
1575320117.3750489,1541.3
1575320117.3871202,1542.65
1575320117.395126,1545.23
1575320117.403501,1548.1
1575320117.4114969,1552.07
1575320117.424861,1553.75
1575320117.432062,1551.06
1575320117.441032,1542.87
1575320117.452673,1532.97
1575320117.460641,1527.11
1575320117.468959,1524.28
1575320117.477021,1525.04
1575320117.4907598,1524.34
1575320117.4977138,1516.21
1575320117.50664,1499.51
1575320117.518353,1482.7
1575320117.526203,1462.15
1575320117.534452,1444.99
1575320117.5425348,1433.31
1575320117.555703,1420.4
1575320117.5630422,1409.79
1575320117.572374,1402.86
1575320117.5834408,1395.97
1575320117.592078,1392.01
1575320117.6000829,1390.54
1575320117.608703,1388.17
1575320117.620467,1383.4
1575320117.628509,1377.97
1575320117.637055,1374.35
1575320117.6490471,1372.13
1575320117.657932,1373.7
1575320117.66556,1377.64
1575320117.6737201,1386.27
1575320117.685927,1397.72
1575320117.69408,1409.57
1575320117.702605,1431.32
1575320117.7147038,1461.79
1575320117.725981,1489.3
1575320117.7309718,1522.27
1575320117.7399502,1548.12
1575320117.751817,1561.76
1575320117.760042,1571.18
1575320117.768165,1576.02
1575320117.7800598,1579.62
1575320117.789456,1585.21
1575320117.796581,1589.93
1575320117.804904,1591.56
1575320117.8172228,1591.1
1575320117.8262138,1588.97
1575320117.8335118,1587.24
1575320117.845676,1586.53
1575320117.853892,1588.57
1575320117.8620632,1593.42
1575320117.870373,1598.21
1575320117.882633,1603.88
1575320117.8911948,1608.19
1575320117.899198,1609.82
1575320117.911272,1608.68
1575320117.919656,1603.7
1575320117.9275289,1597.58
1575320117.936024,1588.86
1575320117.948004,1580.72
1575320117.95695,1575.91
1575320117.9646752,1572.52
1575320117.976665,1571.43
1575320117.985348,1571.24
1575320117.9936798,1571.48
1575320118.00168,1571.41
1575320118.013798,1570.96
1575320118.024044,1570.18
1575320118.030262,1569.57
1575320118.0422442,1569.04
1575320118.050486,1568.03
1575320118.059118,1567.27
1575320118.0668979,1566.48
1575320118.079087,1562.95
1575320118.0873978,1556.78
1575320118.095527,1550.45
1575320118.109304,1547.28
1575320118.116235,1546.78
1575320118.124741,1548.44
1575320118.132695,1549.68
1575320118.144763,1550.44
1575320118.153249,1551.72
1575320118.1610398,1554.7
1575320118.1744452,1561.01
1575320118.181744,1569.63
1575320118.1912131,1577.64
1575320118.198174,1587.84
1575320118.210155,1595.97
1575320118.218674,1598.77
1575320118.2265081,1597.53
1575320118.235282,1593.72
1575320118.247175,1590.07
1575320118.256595,1584.97
1575320118.2634041,1579.29
1575320118.2763488,1574.54
1575320118.284052,1569.21
1575320118.292487,1565.86
1575320118.30055,1564.66
1575320118.312742,1563.1
1575320118.3211231,1559.45
1575320118.3290591,1552.58
1575320118.341828,1545.73
1575320118.349747,1537.96
1575320118.359133,1534.02
1575320118.3661351,1533.7
1575320118.3783302,1534.3
1575320118.386716,1533.55
1575320118.394685,1532.04
1575320118.408284,1531.22
1575320118.415217,1533.28
1575320118.4241269,1537.02
1575320118.431672,1542.63
1575320118.4436102,1547.75
1575320118.452029,1551.11
1575320118.4600132,1554.32
1575320118.473452,1555.52
1575320118.4807549,1554.19
1575320118.489742,1550.1
1575320118.4968672,1544.21
1575320118.509176,1538.96
1575320118.51772,1532.04
1575320118.5263329,1525.49
1575320118.539925,1521.76
1575320118.5460951,1519.65
1575320118.55433,1519.65
1575320118.562412,1520.04
1575320118.575304,1519.79
1575320118.583292,1518.82
1575320118.591851,1518.6
1575320118.6036842,1519.35
1575320118.6117172,1521.21
1575320118.620099,1524.25
1575320118.627952,1527.43
1575320118.641312,1530.93
1575320118.648629,1530.74
1575320118.6576982,1527.46
1575320118.669287,1525.0
1575320118.6772218,1528.53
1575320118.685587,1531.75
1575320118.693713,1527.63
1575320118.707537,1510.77
1575320118.7140322,1491.64
1575320118.7231958,1467.16
1575320118.734953,1447.39
1575320118.742595,1436.89
1575320118.7510889,1430.26
1575320118.7590709,1427.86
1575320118.772725,1426.09
1575320118.779756,1420.95
1575320118.7885811,1413.72
1575320118.800412,1408.47
1575320118.808984,1407.96
1575320118.816585,1411.35
1575320118.824959,1416.05
1575320118.837163,1418.94
1575320118.845206,1421.55
1575320118.853641,1424.15
1575320118.865613,1426.11
1575320118.874636,1428.03
1575320118.88209,1429.55
1575320118.891447,1430.05
1575320118.90274,1428.49
1575320118.910698,1424.87
1575320118.918994,1423.72
1575320118.9311569,1429.88
1575320118.940136,1445.46
1575320118.947752,1461.93
1575320118.956629,1483.85
1575320118.968342,1505.52
1575320118.97634,1521.63
1575320118.9847019,1538.12
1575320118.996587,1549.62
1575320119.006828,1555.9
1575320119.013201,1561.8
1575320119.0216079,1567.89
1575320119.033556,1574.83
1575320119.0427232,1580.09
1575320119.049904,1584.87
1575320119.062161,1584.98
1575320119.070539,1580.93
1575320119.0785122,1573.4
1575320119.086831,1566.89
1575320119.099314,1563.08
1575320119.108906,1559.09
1575320119.115623,1555.14
1575320119.12766,1552.12
1575320119.136127,1548.42
1575320119.1441731,1546.79
1575320119.152461,1547.95
1575320119.164833,1551.19
1575320119.17402,1553.87
1575320119.181217,1554.25
1575320119.193202,1552.21
1575320119.201792,1546.41
1575320119.209615,1539.52
1575320119.218124,1530.69
1575320119.230259,1524.74
1575320119.238982,1523.61
1575320119.2465348,1527.25
1575320119.2591949,1534.3
1575320119.267222,1540.12
1575320119.275755,1542.5
1575320119.283544,1543.4
1575320119.295787,1542.85
1575320119.304159,1542.09
1575320119.312083,1541.75
1575320119.325204,1542.8
1575320119.332793,1544.67
1575320119.3422232,1547.45
1575320119.349056,1548.02
1575320119.361225,1544.95
1575320119.369733,1536.7
1575320119.377721,1527.31
1575320119.390749,1522.12
1575320119.398238,1519.37
1575320119.407891,1518.8
1575320119.414612,1518.37
1575320119.426621,1516.61
1575320119.4352682,1513.65
1575320119.443104,1512.17
1575320119.4564888,1514.56
1575320119.46375,1522.58
1575320119.473343,1531.47
1575320119.4800158,1541.46
1575320119.492342,1547.47
1575320119.500706,1549.01
1575320119.508675,1547.46
1575320119.5211442,1543.31
1575320119.5291688,1538.95
1575320119.5387259,1537.63
1575320119.54579,1538.94
1575320119.558445,1541.75
1575320119.565978,1543.49
1575320119.575628,1543.92
1575320119.586692,1542.13
1575320119.594667,1539.59
1575320119.6032069,1536.2
1575320119.611029,1533.43
1575320119.624633,1531.72
1575320119.6317801,1529.86
1575320119.640828,1529.54
1575320119.652211,1530.8
1575320119.6601532,1534.4
1575320119.668739,1539.86
1575320119.6765592,1544.34
1575320119.6901639,1548.01
1575320119.697076,1549.46
1575320119.7067678,1549.53
1575320119.717847,1549.59
1575320119.7259688,1551.18
1575320119.734143,1553.49
1575320119.74242,1555.1
1575320119.754529,1555.59
1575320119.76276,1554.15
1575320119.7709372,1552.36
1575320119.78332,1549.26
1575320119.7929118,1545.88
1575320119.7996411,1543.75
1575320119.8083541,1542.96
1575320119.820231,1543.3
1575320119.828253,1542.99
1575320119.836729,1542.34
1575320119.8485801,1542.14
1575320119.857965,1542.02
1575320119.8651268,1541.81
1575320119.874497,1542.51
1575320119.885613,1544.28
1575320119.8948128,1547.97
1575320119.902028,1552.77
1575320119.914351,1555.99
1575320119.9234822,1558.25
1575320119.930699,1559.61
1575320119.9407492,1561.96
1575320119.95128,1567.72
1575320119.959632,1575.67
1575320119.967617,1582.49
1575320119.979918,1585.41
1575320119.988071,1586.53
1575320119.996174,1586.48
1575320120.0043771,1586.84
1575320120.016742,1586.26
1575320120.025753,1582.49
1575320120.033424,1577.11
1575320120.045258,1570.13
1575320120.053594,1565.01
1575320120.061615,1562.07
1575320120.070107,1558.55
1575320120.082152,1555.08
1575320120.091651,1552.58
1575320120.098582,1550.75
1575320120.110743,1550.64
1575320120.119197,1550.73
1575320120.127244,1549.89
1575320120.135506,1549.45
1575320120.1479082,1550.63
1575320120.1559691,1554.36
1575320120.164333,1558.37
1575320120.1762471,1560.49
1575320120.184771,1560.52
1575320120.192875,1558.32
1575320120.200961,1555.55
1575320120.213325,1553.34
1575320120.222125,1550.99
1575320120.22963,1549.02
1575320120.241914,1547.78
1575320120.2503839,1545.75
1575320120.258869,1541.99
1575320120.266647,1538.32
1575320120.278841,1534.24
1575320120.28721,1532.5
1575320120.295216,1533.39
1575320120.3084202,1536.57
1575320120.315795,1539.68
1575320120.324805,1541.27
1575320120.332272,1541.64
1575320120.344439,1540.41
1575320120.352582,1539.1
1575320120.360634,1538.15
1575320120.374321,1538.49
1575320120.381226,1539.35
1575320120.390113,1540.1
1575320120.397742,1539.47
1575320120.4097111,1537.63
1575320120.418185,1533.27
1575320120.4262028,1528.08
1575320120.439407,1524.31
1575320120.446808,1523.2
1575320120.455749,1522.53
1575320120.46327,1520.2
1575320120.475612,1517.46
1575320120.483766,1515.42
1575320120.4924228,1516.21
1575320120.5041559,1518.16
1575320120.5122519,1521.26
1575320120.5205219,1524.01
1575320120.5285618,1525.91
1575320120.54187,1527.65
1575320120.548953,1527.1
1575320120.5587132,1524.83
1575320120.569721,1521.79
1575320120.577684,1520.76
1575320120.585974,1522.47
1575320120.594095,1527.18
1575320120.6076381,1533.57
1575320120.614597,1538.49
1575320120.624564,1543.68
1575320120.635404,1548.58
1575320120.6432269,1551.98
1575320120.651834,1554.73
1575320120.659911,1555.58
1575320120.6725938,1554.99
1575320120.68035,1553.39
1575320120.6892369,1546.91
1575320120.701014,1531.92
1575320120.7094378,1515.01
1575320120.7171578,1493.35
1575320120.7251399,1477.84
1575320120.737671,1473.05
1575320120.7457678,1476.13
1575320120.754071,1485.43
1575320120.7662332,1493.86
1575320120.775211,1502.64
1575320120.782722,1509.21
1575320120.7919428,1513.98
1575320120.803317,1521.22
1575320120.811164,1530.29
1575320120.819678,1537.69
1575320120.831729,1544.25
1575320120.8417048,1545.48
1575320120.848292,1542.33
1575320120.857141,1533.53
1575320120.868887,1520.5
1575320120.877169,1508.82
1575320120.885342,1495.71
1575320120.8971388,1487.27
1575320120.90624,1483.96
1575320120.9137459,1484.0
1575320120.9225879,1486.3
1575320120.934369,1489.41
1575320120.943087,1491.67
1575320120.950599,1494.26
1575320120.9627619,1497.1
1575320120.971223,1499.32
1575320120.9793081,1500.71
1575320120.987427,1499.49
1575320120.99986,1496.72
1575320121.0097659,1492.45
1575320121.01617,1489.16
1575320121.028191,1487.84
1575320121.037628,1488.31
1575320121.0446851,1490.65
1575320121.0529122,1493.53
1575320121.065233,1497.64
1575320121.074254,1502.01
1575320121.081501,1505.27
1575320121.0937579,1508.43
1575320121.102313,1509.83
1575320121.110188,1510.34
1575320121.1187189,1510.92
1575320121.130882,1510.94
1575320121.141449,1509.25
1575320121.147121,1506.51
1575320121.1594949,1503.54
1575320121.167819,1503.4
1575320121.175997,1506.24
1575320121.184246,1512.06
1575320121.196347,1517.22
1575320121.204708,1520.1
1575320121.212621,1522.89
1575320121.2253041,1525.26
1575320121.2333848,1527.5
1575320121.241869,1531.23
1575320121.2496588,1534.59
1575320121.261902,1535.83
1575320121.270358,1536.49
1575320121.2783859,1540.25
1575320121.292238,1546.55
1575320121.298742,1555.6
1575320121.307693,1562.92
1575320121.315254,1567.18
1575320121.327251,1571.68
1575320121.335561,1574.64
1575320121.343646,1573.94
1575320121.357177,1568.49
1575320121.3644211,1561.91
1575320121.3732932,1559.62
1575320121.380733,1561.71
1575320121.392803,1566.07
1575320121.40134,1569.08
1575320121.4092999,1571.0
1575320121.421626,1573.32
1575320121.4298618,1574.6
1575320121.43826,1574.1
1575320121.446251,1571.72
1575320121.458912,1570.11
1575320121.466766,1570.04
1575320121.4758148,1570.63
1575320121.4872699,1572.08
1575320121.495353,1574.58
1575320121.504375,1579.7
1575320121.5115762,1585.69
1575320121.525207,1589.46
1575320121.5321999,1590.43
1575320121.542197,1588.72
1575320121.552743,1589.42
1575320121.560745,1594.88
1575320121.569186,1602.42
1575320121.5772648,1606.75
1575320121.590465,1607.84
1575320121.597785,1605.06
1575320121.606731,1600.27
1575320121.618269,1595.23
1575320121.627198,1588.05
1575320121.634572,1579.96
1575320121.6426308,1573.4
1575320121.656449,1566.9
1575320121.663147,1563.61
1575320121.6720698,1563.27
1575320121.684033,1565.27
1575320121.6929338,1570.0
1575320121.700354,1574.35
1575320121.708771,1578.03
1575320121.720633,1578.65
1575320121.728673,1577.4
1575320121.7372549,1575.33
1575320121.749276,1573.31
1575320121.7579572,1572.03
1575320121.7657468,1571.07
1575320121.7745652,1569.83
1575320121.786328,1566.79
1575320121.794355,1558.54
1575320121.802488,1545.79
1575320121.814817,1534.33
1575320121.823927,1522.21
1575320121.831394,1513.86
1575320121.840649,1509.14
1575320121.851954,1507.17
1575320121.860854,1505.25
1575320121.868265,1502.66
1575320121.8802922,1500.47
1575320121.889189,1498.64
1575320121.896721,1497.29
1575320121.906317,1496.08
1575320121.917396,1494.58
1575320121.925675,1494.51
1575320121.933853,1495.34
1575320121.945944,1496.06
1575320121.954289,1496.52
1575320121.962333,1497.18
1575320121.970626,1498.01
1575320121.98287,1498.18
1575320121.9918358,1499.63
1575320121.999199,1507.39
1575320122.011489,1524.59
1575320122.019773,1543.09
1575320122.0278242,1566.48
1575320122.0360372,1585.88
1575320122.048228,1597.2
1575320122.0575318,1606.57
1575320122.064684,1611.24
1575320122.076821,1612.88
1575320122.0851982,1613.45
1575320122.093339,1614.21
1575320122.101828,1615.23
1575320122.113882,1615.92
1575320122.123622,1616.37
1575320122.130316,1616.59
1575320122.1430888,1617.07
1575320122.1507788,1618.12
1575320122.158747,1615.46
1575320122.167331,1606.81
1575320122.1792681,1586.29
1575320122.187583,1558.86
1575320122.195702,1536.06
1575320122.209548,1511.13
1575320122.216393,1492.7
1575320122.224753,1482.44
1575320122.232806,1474.13
1575320122.244799,1469.81
1575320122.2533162,1468.68
1575320122.26124,1468.55
1575320122.2746592,1468.99
1575320122.2819169,1469.76
1575320122.291442,1470.2
1575320122.298261,1469.47
1575320122.3102798,1468.1
1575320122.3188941,1467.13
1575320122.326758,1466.14
1575320122.339906,1465.92
1575320122.347373,1466.47
1575320122.3560572,1467.49
1575320122.363876,1468.03
1575320122.375812,1468.47
1575320122.384307,1470.42
1575320122.392354,1472.41
1575320122.404924,1472.01
1575320122.41292,1468.12
1575320122.421052,1463.26
1575320122.4293718,1463.03
1575320122.4421241,1472.55
1575320122.449784,1491.2
1575320122.458554,1507.46
1575320122.4704561,1523.92
1575320122.478373,1534.36
1575320122.486826,1540.72
1575320122.494669,1547.69
1575320122.507647,1552.45
1575320122.515367,1553.22
1575320122.523962,1550.1
1575320122.531703,1545.55
1575320122.543766,1543.19
1575320122.552041,1544.21
1575320122.560236,1548.7
1575320122.573714,1554.31
1575320122.580719,1557.13
1575320122.589636,1556.8
1575320122.5972521,1553.59
1575320122.609359,1551.01
1575320122.6178718,1549.4
1575320122.6264079,1550.41
1575320122.638885,1553.03
1575320122.6463602,1557.68
1575320122.6545432,1562.53
1575320122.662789,1565.66
1575320122.6752021,1568.62
1575320122.6833751,1570.17
1575320122.6927419,1569.58
1575320122.7039082,1565.84
1575320122.7117991,1560.1
1575320122.720258,1555.55
1575320122.7282162,1551.32
1575320122.74161,1549.07
1575320122.748767,1548.26
1575320122.7580311,1547.73
1575320122.76914,1548.09
1575320122.777241,1549.41
1575320122.785755,1550.85
1575320122.793637,1551.9
1575320122.808177,1552.23
1575320122.814228,1552.82
1575320122.8236969,1554.12
1575320122.834993,1554.59
1575320122.842884,1553.85
1575320122.851323,1552.59
1575320122.859514,1552.15
1575320122.872308,1552.41
1575320122.8798761,1552.75
1575320122.8885949,1553.09
1575320122.900586,1553.67
1575320122.908918,1555.8
1575320122.916759,1559.63
1575320122.9252422,1561.61
1575320122.937343,1559.33
1575320122.945269,1550.06
1575320122.95371,1539.16
1575320122.9657202,1524.5
1575320122.97458,1511.5
1575320122.982408,1503.17
1575320122.992636,1495.25
1575320123.003079,1489.57
1575320123.01075,1485.3
1575320123.019109,1481.78
1575320123.031318,1475.64
1575320123.040069,1467.82
1575320123.047806,1461.1
1575320123.057175,1453.38
1575320123.0682182,1448.87
1575320123.076409,1449.19
1575320123.084597,1454.22
1575320123.096745,1460.58
1575320123.10567,1465.22
1575320123.113361,1470.18
1575320123.121741,1474.03
1575320123.133955,1475.6
1575320123.143038,1475.67
1575320123.150271,1475.26
1575320123.162324,1475.31
1575320123.1706932,1475.87
1575320123.178784,1477.08
1575320123.1871612,1478.67
1575320123.1994271,1480.2
1575320123.20878,1480.76
1575320123.2157881,1481.35
1575320123.227823,1483.12
1575320123.2363021,1484.48
1575320123.24433,1484.22
1575320123.252643,1483.86
1575320123.265234,1485.11
1575320123.2752151,1489.31
1575320123.281285,1494.46
1575320123.2933528,1502.38
1575320123.3019378,1511.1
1575320123.309875,1517.65
1575320123.318254,1524.01
1575320123.3304288,1527.65
1575320123.34069,1529.67
1575320123.3467,1532.83
1575320123.3592792,1536.71
1575320123.367483,1539.45
1575320123.376726,1542.99
1575320123.383756,1546.85
1575320123.395927,1548.47
1575320123.404295,1546.65
1575320123.4123058,1541.16
1575320123.42629,1536.79
1575320123.432836,1534.22
1575320123.4417,1534.07
1575320123.449375,1534.09
1575320123.4613628,1534.05
1575320123.469686,1535.02
1575320123.4776928,1536.55
1575320123.491767,1537.58
1575320123.4984179,1538.49
1575320123.507236,1539.58
1575320123.514924,1541.28
1575320123.526855,1544.52
1575320123.5355399,1548.97
1575320123.543927,1553.78
1575320123.556949,1559.85
1575320123.563733,1562.28
1575320123.573892,1560.14
1575320123.5802271,1553.04
1575320123.5928152,1543.22
1575320123.6009548,1535.56
1575320123.6098502,1527.58
1575320123.621263,1521.94
1575320123.629257,1519.29
1575320123.637732,1518.4
1575320123.645616,1519.12
1575320123.6588569,1519.81
1575320123.666656,1520.95
1575320123.676796,1523.31
1575320123.686835,1526.03
1575320123.694928,1529.88
1575320123.7031648,1532.73
1575320123.711195,1532.08
1575320123.724353,1528.36
1575320123.7319381,1520.33
1575320123.741327,1512.79
1575320123.752505,1510.89
1575320123.760299,1514.62
1575320123.769024,1518.99
1575320123.77689,1517.11
1575320123.791112,1506.94
1575320123.7973819,1493.03
1575320123.807621,1482.79
1575320123.8179111,1473.39
1575320123.826071,1466.98
1575320123.834359,1463.09
1575320123.8427148,1459.03
1575320123.8546612,1455.89
1575320123.862868,1453.53
1575320123.871063,1450.26
1575320123.883372,1447.23
1575320123.893558,1446.17
1575320123.89984,1447.8
1575320123.9082088,1451.48
1575320123.9204102,1453.96
1575320123.928323,1454.61
1575320123.936897,1452.16
1575320123.948756,1446.97
1575320123.95813,1441.46
1575320123.9654999,1434.37
1575320123.976897,1430.11
1575320123.9856288,1430.96
1575320123.993842,1437.54
1575320124.0022771,1446.55
1575320124.0145311,1451.4
1575320124.024797,1450.9
1575320124.0306811,1443.13
1575320124.039407,1433.89
1575320124.051192,1423.6
1575320124.059409,1420.41
1575320124.067647,1424.87
1575320124.0797582,1438.39
1575320124.088469,1456.49
1575320124.0962,1469.59
1575320124.10465,1479.59
1575320124.116967,1482.42
1575320124.126559,1483.08
1575320124.133406,1485.39
1575320124.1455119,1491.2
1575320124.153923,1498.69
1575320124.162448,1509.53
1575320124.1702578,1520.84
1575320124.1824331,1532.93
1575320124.1915252,1542.34
1575320124.1988978,1550.84
1575320124.21084,1554.53
1575320124.21945,1554.56
1575320124.227326,1551.89
1575320124.235808,1547.04
1575320124.2479942,1541.82
1575320124.257042,1534.5
1575320124.264458,1527.12
1575320124.276552,1522.48
1575320124.2848692,1520.45
1575320124.292823,1522.75
1575320124.301258,1526.47
1575320124.313418,1530.58
1575320124.321868,1531.11
1575320124.329738,1528.31
1575320124.342109,1522.77
1575320124.3504808,1518.31
1575320124.3593159,1516.61
1575320124.366852,1516.15
1575320124.379023,1516.53
1575320124.387373,1518.28
1575320124.3953652,1522.75
1575320124.408452,1528.96
1575320124.4159281,1535.5
1575320124.424901,1539.76
1575320124.432378,1542.15
1575320124.44437,1538.37
1575320124.4526951,1531.29
1575320124.4607701,1521.6
1575320124.4740689,1515.12
1575320124.4815412,1512.85
1575320124.49032,1512.13
1575320124.497845,1511.05
1575320124.509866,1509.06
1575320124.518475,1506.03
1575320124.526363,1503.06
1575320124.540042,1501.28
1575320124.546966,1500.19
1575320124.5568929,1500.61
1575320124.563392,1500.99
1575320124.5759768,1499.63
1575320124.583717,1495.12
1575320124.5927098,1491.04
1575320124.6042318,1487.62
1575320124.612494,1485.78
1575320124.620851,1484.86
1575320124.628792,1483.96
1575320124.641591,1483.79
1575320124.649351,1484.85
1575320124.657907,1486.73
1575320124.669974,1489.83
1575320124.677983,1492.27
1575320124.6861491,1493.29
1575320124.694218,1493.49
1575320124.707459,1492.34
1575320124.7149608,1490.93
1575320124.725269,1489.42
1575320124.735616,1488.84
1575320124.743449,1489.62
1575320124.75183,1492.91
1575320124.759827,1498.16
1575320124.773762,1502.26
1575320124.7803662,1504.95
1575320124.788856,1504.04
1575320124.8008041,1501.97
1575320124.808919,1499.91
1575320124.8174431,1499.95
1575320124.8258471,1501.0
1575320124.837866,1503.04
1575320124.845907,1504.58
1575320124.8542778,1505.0
1575320124.866362,1504.15
1575320124.875409,1502.14
1575320124.882837,1500.63
1575320124.891362,1500.48
1575320124.903466,1501.69
1575320124.911492,1503.33
1575320124.9197922,1504.64
1575320124.931744,1505.87
1575320124.940881,1506.26
1575320124.9484491,1507.57
1575320124.958605,1512.04
1575320124.9690912,1519.46
1575320124.976985,1525.35
1575320124.98546,1530.69
1575320124.997416,1533.88
1575320125.006953,1535.78
1575320125.013952,1538.09
1575320125.0247538,1539.9
1575320125.034401,1540.35
1575320125.042517,1539.99
1575320125.051017,1540.72
1575320125.062879,1542.34
1575320125.0713542,1544.84
1575320125.079299,1547.16
1575320125.087601,1548.57
1575320125.099736,1547.95
1575320125.108437,1543.69
1575320125.116411,1537.36
1575320125.128394,1531.75
1575320125.137105,1525.65
1575320125.144995,1520.0
1575320125.153173,1515.07
1575320125.1655092,1508.99
1575320125.1749718,1505.79
1575320125.1818528,1506.77
1575320125.193921,1511.39
1575320125.202571,1516.97
1575320125.210903,1520.17
1575320125.2187421,1522.12
1575320125.2310872,1522.25
1575320125.240696,1521.08
1575320125.2474,1517.73
1575320125.260154,1513.43
1575320125.267848,1510.15
1575320125.275904,1505.6
1575320125.284416,1500.92
1575320125.2963898,1496.97
1575320125.3047051,1492.12
1575320125.3130019,1488.31
1575320125.326965,1486.62
1575320125.333378,1486.49
1575320125.341952,1487.14
1575320125.349893,1486.91
1575320125.361899,1486.25
1575320125.370605,1485.67
1575320125.378438,1485.66
1575320125.391573,1485.75
1575320125.399026,1485.61
1575320125.408095,1487.14
1575320125.415586,1491.07
1575320125.427535,1499.11
1575320125.435793,1508.32
1575320125.443871,1514.48
1575320125.4576042,1519.53
1575320125.4644759,1522.55
1575320125.474688,1524.14
1575320125.480726,1524.92
1575320125.49299,1523.83
1575320125.5014982,1521.77
1575320125.509407,1518.38
1575320125.521763,1514.52
1575320125.5298948,1511.67
1575320125.538198,1509.65
1575320125.5463748,1509.89
1575320125.5591319,1511.28
1575320125.566784,1513.48
1575320125.576213,1515.96
1575320125.587329,1518.43
1575320125.59537,1520.2
1575320125.603723,1524.93
1575320125.611809,1534.61
1575320125.625313,1545.11
1575320125.632235,1557.56
1575320125.641846,1565.68
1575320125.652784,1568.64
1575320125.6608992,1569.39
1575320125.669346,1568.72
1575320125.6773062,1567.87
1575320125.692414,1566.52
1575320125.697841,1564.53
1575320125.708069,1561.9
1575320125.718407,1557.59
1575320125.726412,1553.26
1575320125.734981,1550.58
1575320125.742995,1548.87
1575320125.755269,1547.97
1575320125.763485,1547.34
1575320125.771696,1547.51
1575320125.784213,1549.06
1575320125.792781,1550.51
1575320125.800401,1551.92
1575320125.808684,1553.37
1575320125.820905,1555.2
1575320125.828991,1556.79
1575320125.8372009,1558.85
1575320125.849401,1560.32
1575320125.858915,1561.35
1575320125.8659048,1562.41
1575320125.8752909,1562.13
1575320125.886368,1560.1
1575320125.894361,1554.97
1575320125.9028149,1548.0
1575320125.914828,1543.71
1575320125.924717,1541.96
1575320125.931526,1542.93
1575320125.9412549,1544.07
1575320125.952086,1545.26
1575320125.95997,1546.25
1575320125.968491,1547.93
1575320125.980387,1550.46
1575320125.989402,1551.75
1575320125.996979,1551.87
1575320126.0065322,1551.73
1575320126.017557,1551.86
1575320126.026304,1551.59
1575320126.0339358,1550.48
1575320126.045973,1548.99
1575320126.0547352,1548.33
1575320126.062345,1548.38
1575320126.070791,1548.89
1575320126.08284,1549.68
1575320126.091912,1550.61
1575320126.099293,1552.35
1575320126.111413,1553.92
1575320126.119909,1554.64
1575320126.1279209,1554.61
1575320126.136248,1554.58
1575320126.148627,1555.11
1575320126.157177,1556.33
1575320126.165047,1557.7
1575320126.176995,1558.54
1575320126.185633,1560.12
1575320126.193507,1562.15
1575320126.2017438,1563.39
1575320126.214037,1564.96
1575320126.223026,1565.74
1575320126.230298,1565.37
1575320126.2425332,1562.49
1575320126.251013,1556.7
1575320126.259257,1551.27
1575320126.2675672,1544.66
1575320126.279559,1538.77
1575320126.287911,1532.92
1575320126.295955,1528.52
1575320126.309281,1524.89
1575320126.316533,1523.53
1575320126.325087,1523.53
1575320126.3330119,1524.75
1575320126.3450398,1528.18
1575320126.353483,1532.8
1575320126.361394,1540.65
1575320126.374754,1550.67
1575320126.382041,1560.18
1575320126.390985,1572.5
1575320126.3984818,1581.37
1575320126.4105,1583.07
1575320126.419148,1578.58
1575320126.42688,1569.47
1575320126.440714,1561.27
1575320126.447359,1551.63
1575320126.457037,1542.83
1575320126.4639392,1536.57
1575320126.4759738,1529.28
1575320126.484459,1522.4
1575320126.492764,1518.04
1575320126.505813,1514.95
1575320126.5131478,1514.1
1575320126.521218,1513.93
1575320126.529408,1513.8
1575320126.542222,1513.85
1575320126.549985,1514.63
1575320126.558753,1515.8
1575320126.570521,1517.6
1575320126.578557,1519.74
1575320126.5869398,1521.67
1575320126.594833,1522.91
1575320126.6085591,1522.41
1575320126.615529,1521.62
1575320126.624634,1521.28
1575320126.636045,1521.87
1575320126.6441011,1522.72
1575320126.652499,1524.01
1575320126.660319,1525.89
1575320126.674003,1528.61
1575320126.681067,1533.56
1575320126.690059,1539.21
1575320126.6974232,1543.25
1575320126.7094731,1546.57
1575320126.71796,1547.91
1575320126.726069,1547.93
1575320126.738477,1546.8
1575320126.746528,1543.94
1575320126.7555041,1539.09
1575320126.7629619,1534.89
1575320126.7754502,1529.44
1575320126.783493,1520.4
1575320126.792475,1508.12
1575320126.804001,1487.43
1575320126.811936,1465.69
1575320126.8205361,1451.0
1575320126.828305,1437.69
1575320126.8418949,1429.65
1575320126.849071,1426.17
1575320126.858547,1423.24
1575320126.8693812,1420.9
1575320126.877436,1419.47
1575320126.886025,1419.49
1575320126.894012,1422.36
1575320126.907754,1426.26
1575320126.914507,1431.78
1575320126.9250329,1436.48
1575320126.935075,1439.89
1575320126.9430761,1443.9
1575320126.951479,1447.26
1575320126.959521,1449.41
1575320126.973633,1452.0
1575320126.980025,1454.95
1575320126.988383,1458.97
1575320127.000478,1462.83
1575320127.0090082,1467.22
1575320127.017035,1468.88
1575320127.027335,1467.98
1575320127.0375302,1465.18
1575320127.045496,1461.71
1575320127.054282,1459.59
1575320127.066175,1460.26
1575320127.07551,1469.12
1575320127.082259,1482.91
1575320127.091142,1503.83
1575320127.10296,1522.5
1575320127.1109602,1534.07
1575320127.119371,1545.99
1575320127.131401,1557.33
1575320127.140401,1565.3
1575320127.148052,1572.42
1575320127.157841,1574.8
1575320127.16857,1573.49
1575320127.17644,1569.91
1575320127.1849248,1566.41
1575320127.19705,1564.95
1575320127.206453,1564.68
1575320127.213404,1563.6
1575320127.222641,1560.1
1575320127.234105,1556.67
1575320127.24287,1554.2
1575320127.2503848,1554.78
1575320127.262635,1556.73
1575320127.270985,1559.53
1575320127.278848,1560.39
1575320127.287353,1558.93
1575320127.299614,1554.18
1575320127.308437,1546.88
1575320127.315891,1539.98
1575320127.3280158,1529.92
1575320127.3363771,1520.23
1575320127.3445399,1515.12
1575320127.352745,1513.03
1575320127.365105,1514.16
1575320127.373937,1515.23
1575320127.3814201,1514.81
1575320127.393516,1512.06
1575320127.402053,1509.66
1575320127.4104059,1509.73
1575320127.418441,1515.12
1575320127.430634,1521.42
1575320127.439382,1525.82
1575320127.4470022,1524.06
1575320127.4598532,1519.44
1575320127.4674711,1516.5
1575320127.4756181,1515.42
1575320127.4840121,1515.45
1575320127.4960241,1514.32
1575320127.504849,1509.89
1575320127.512523,1502.74
1575320127.526618,1496.68
1575320127.533112,1491.68
1575320127.54197,1491.56
1575320127.54937,1495.67
1575320127.561526,1504.76
1575320127.570063,1515.14
1575320127.577914,1521.94
1575320127.590828,1527.1
1575320127.598319,1529.01
1575320127.607384,1528.77
1575320127.61503,1527.76
1575320127.62699,1527.09
1575320127.635571,1527.22
1575320127.643426,1529.38
1575320127.657172,1533.63
1575320127.664047,1537.26
1575320127.672734,1539.45
1575320127.6804779,1539.05
1575320127.692735,1538.04
1575320127.701001,1537.77
1575320127.709547,1537.89
1575320127.721456,1538.81
1575320127.7296,1540.92
1575320127.7378292,1544.86
1575320127.745774,1548.15
1575320127.758666,1549.0
1575320127.766677,1548.23
1575320127.776248,1546.89
1575320127.787062,1546.84
1575320127.795016,1547.5
1575320127.803334,1547.37
1575320127.81139,1546.12
1575320127.824727,1543.97
1575320127.832028,1541.7
1575320127.840835,1540.58
1575320127.8527749,1540.53
1575320127.860539,1542.24
1575320127.869214,1544.01
1575320127.877269,1545.44
1575320127.8901381,1544.94
1575320127.897621,1543.2
1575320127.906195,1539.47
1575320127.918252,1535.99
1575320127.926597,1534.68
1575320127.9345531,1534.8
1575320127.9437509,1535.67
1575320127.954865,1536.91
1575320127.963079,1538.94
1575320127.971315,1542.35
1575320127.9836512,1545.08
1575320127.9924748,1545.45
1575320127.99997,1543.05
1575320128.008485,1538.53
1575320128.0204768,1535.73
1575320128.028511,1535.37
1575320128.0370119,1536.03
1575320128.049091,1534.64
1575320128.058274,1530.24
1575320128.0655181,1524.31
1575320128.074521,1519.04
1575320128.085896,1513.1
1575320128.0940318,1507.62
1575320128.1022668,1503.53
1575320128.1145558,1498.78
1575320128.124224,1495.43
1575320128.1308029,1495.02
1575320128.140146,1496.89
1575320128.1516092,1499.92
1575320128.1598048,1502.56
1575320128.168088,1503.97
1575320128.1800928,1504.1
1575320128.1882849,1502.79
1575320128.1965492,1502.56
1575320128.2047858,1505.23
1575320128.217122,1511.23
1575320128.22561,1517.98
1575320128.2336059,1527.45
1575320128.245635,1534.61
1575320128.254133,1536.29
1575320128.2619898,1534.22
1575320128.270545,1532.79
1575320128.2825978,1534.87
1575320128.291809,1540.76
1575320128.299065,1546.4
1575320128.311033,1548.09
1575320128.319503,1546.76
1575320128.327938,1544.59
1575320128.336055,1543.62
1575320128.348017,1543.93
1575320128.357708,1545.18
1575320128.36447,1546.83
1575320128.3771951,1549.09
1575320128.38497,1550.77
1575320128.392986,1551.4
1575320128.401525,1552.0
1575320128.413439,1553.53
1575320128.421889,1555.82
1575320128.429931,1558.62
1575320128.442645,1562.87
1575320128.45056,1567.8
1575320128.459072,1571.21
1575320128.4670541,1573.26
1575320128.479056,1573.13
1575320128.4875178,1573.19
1575320128.495405,1574.3
1575320128.508578,1576.02
1575320128.516084,1577.07
1575320128.525005,1577.15
1575320128.532386,1573.61
1575320128.5445492,1567.87
1575320128.5529659,1559.54
1575320128.560947,1552.18
1575320128.5743208,1547.79
1575320128.5814211,1544.21
1575320128.591119,1543.33
1575320128.597878,1543.96
1575320128.610089,1545.14
1575320128.618544,1546.37
1575320128.626436,1547.72
1575320128.639012,1548.62
1575320128.647125,1548.64
1575320128.656676,1548.85
1575320128.663599,1553.15
1575320128.676016,1567.74
1575320128.684085,1590.65
1575320128.692805,1609.82
1575320128.7045388,1629.68
1575320128.7125309,1643.66
1575320128.7208881,1651.05
1575320128.7289321,1655.31
1575320128.742332,1654.52
1575320128.7495072,1652.9
1575320128.758718,1653.68
1575320128.770016,1658.68
1575320128.778147,1664.51
1575320128.78644,1671.75
1575320128.79442,1676.34
1575320128.808613,1676.99
1575320128.815134,1674.22
1575320128.8253849,1668.7
1575320128.8356988,1663.64
1575320128.843585,1657.4
1575320128.851995,1651.57
1575320128.8599749,1645.7
1575320128.872444,1640.57
1575320128.880867,1633.96
1575320128.889354,1628.25
1575320128.9012868,1625.42
1575320128.9097579,1623.67
1575320128.9176111,1622.82
1575320128.926408,1621.67
1575320128.938008,1619.29
1575320128.9459999,1616.86
1575320128.954392,1615.77
1575320128.966485,1615.43
1575320128.9754088,1614.59
1575320128.982959,1612.5
1575320128.991769,1608.7
1575320129.003493,1606.21
1575320129.011818,1605.95
1575320129.019804,1606.38
1575320129.032043,1605.02
1575320129.0413609,1600.48
1575320129.048778,1589.43
1575320129.059505,1574.56
1575320129.068964,1562.12
1575320129.0769742,1547.14
1575320129.085331,1531.88
1575320129.0975308,1515.4
1575320129.1069481,1502.34
1575320129.114083,1489.1
1575320129.123519,1481.09
1575320129.134662,1478.89
1575320129.143569,1479.58
1575320129.15111,1482.35
1575320129.163211,1485.25
1575320129.171457,1488.68
1575320129.179413,1493.31
1575320129.1879091,1499.01
1575320129.20014,1507.2
1575320129.2087831,1513.18
1575320129.2166212,1517.21
1575320129.228642,1522.96
1575320129.2371268,1527.63
1575320129.244957,1529.41
1575320129.2536168,1529.94
1575320129.2656798,1531.3
1575320129.274868,1534.95
1575320129.2819881,1543.37
1575320129.294119,1553.77
1575320129.302593,1560.77
1575320129.310512,1565.4
1575320129.319165,1566.2
1575320129.331132,1565.63
1575320129.340267,1565.36
1575320129.347445,1565.42
1575320129.359665,1564.85
1575320129.368104,1563.58
1575320129.376189,1561.74
1575320129.384502,1561.56
1575320129.396666,1563.7
1575320129.4050188,1568.98
1575320129.413004,1574.77
1575320129.4255,1577.91
1575320129.433686,1578.97
1575320129.442202,1576.73
1575320129.450022,1574.05
1575320129.4622211,1571.6
1575320129.470627,1570.82
1575320129.478631,1570.76
1575320129.4916182,1569.49
1575320129.499139,1567.2
1575320129.508395,1567.33
1575320129.515509,1574.9
1575320129.527594,1590.11
1575320129.536067,1603.8
1575320129.544018,1617.9
1575320129.558601,1626.81
1575320129.564671,1630.66
1575320129.573817,1630.65
1575320129.5808692,1628.63
1575320129.593241,1627.14
1575320129.601383,1627.57
1575320129.6098628,1628.67
1575320129.622014,1628.86
1575320129.630066,1627.83
1575320129.63837,1624.7
1575320129.646573,1619.89
1575320129.6591868,1615.83
1575320129.666977,1613.28
1575320129.675662,1613.35
1575320129.687514,1612.88
1575320129.695476,1608.87
1575320129.70416,1602.78
1575320129.711931,1599.23
1575320129.726018,1597.71
1575320129.732565,1597.96
1575320129.741706,1597.74
1575320129.752961,1595.27
1575320129.7610722,1591.38
1575320129.7695758,1588.96
1575320129.7774389,1587.03
1575320129.790758,1585.63
1575320129.798243,1583.81
1575320129.8069491,1581.4
1575320129.81883,1577.18
1575320129.826872,1572.74
1575320129.83507,1570.13
1575320129.843364,1569.69
1575320129.855999,1573.01
1575320129.863651,1577.9
1575320129.872294,1584.6
1575320129.8843362,1590.05
1575320129.892742,1592.33
1575320129.900512,1590.06
1575320129.90909,1579.41
1575320129.921087,1564.66
1575320129.92912,1541.24
1575320129.937484,1517.17
1575320129.949561,1500.47
1575320129.958535,1482.79
1575320129.966059,1466.18
1575320129.975137,1453.6
1575320129.9864268,1440.68
1575320129.994536,1431.92
1575320130.003047,1428.42
1575320130.0150242,1427.63
1575320130.024713,1428.14
1575320130.031643,1427.61
1575320130.040812,1426.04
1575320130.0521972,1423.16
1575320130.060556,1422.08
1575320130.068536,1424.34
1575320130.080568,1431.44
1575320130.090352,1441.06
1575320130.097009,1447.08
1575320130.106224,1448.89
1575320130.117599,1444.59
1575320130.125747,1438.81
1575320130.134055,1431.42
1575320130.146202,1425.79
1575320130.154621,1423.1
1575320130.1625469,1422.03
1575320130.170934,1422.44
1575320130.1830568,1422.17
1575320130.191711,1419.23
1575320130.199543,1413.25
1575320130.211605,1407.68
1575320130.2200708,1403.54
1575320130.2281878,1404.33
1575320130.2364612,1407.47
1575320130.248776,1412.49
1575320130.2582881,1417.32
1575320130.2650728,1421.88
1575320130.2771258,1424.68
1575320130.285781,1426.77
1575320130.293889,1429.0
1575320130.3021078,1432.38
1575320130.3140879,1438.96
1575320130.3235369,1447.61
1575320130.330625,1454.47
1575320130.343345,1460.52
1575320130.35111,1463.16
1575320130.3591812,1463.51
1575320130.367532,1462.75
1575320130.37954,1460.87
1575320130.388064,1460.13
1575320130.3960252,1463.81
1575320130.408777,1472.64
1575320130.416796,1480.87
1575320130.426108,1489.59
1575320130.433058,1494.9
1575320130.4451368,1496.69
1575320130.4534972,1495.77
1575320130.461647,1491.07
1575320130.4752698,1485.85
1575320130.482154,1480.27
1575320130.491217,1477.87
1575320130.498517,1477.94
1575320130.5106518,1478.07
1575320130.519198,1477.25
1575320130.527024,1475.17
1575320130.5404081,1473.11
1575320130.547677,1470.36
1575320130.556752,1468.15
1575320130.5642471,1466.89
1575320130.576225,1465.38
1575320130.5844212,1463.1
1575320130.592662,1461.32
1575320130.6055942,1460.12
1575320130.613081,1461.07
1575320130.621377,1463.61
1575320130.629636,1467.16
1575320130.642786,1469.11
1575320130.6500869,1469.58
1575320130.658818,1470.68
1575320130.67062,1473.77
1575320130.678606,1477.02
1575320130.687053,1481.55
1575320130.6949818,1485.66
1575320130.7084448,1488.1
1575320130.7156029,1490.14
1575320130.72506,1491.63
1575320130.736347,1493.0
1575320130.744203,1493.64
1575320130.752874,1493.01
1575320130.7606442,1490.68
1575320130.7737632,1487.95
1575320130.78123,1483.53
1575320130.790144,1477.9
1575320130.8017678,1473.52
1575320130.8101928,1469.35
1575320130.818053,1468.06
1575320130.826026,1468.67
1575320130.838568,1469.94
1575320130.846522,1472.17
1575320130.854847,1474.36
1575320130.867179,1477.55
1575320130.876019,1480.87
1575320130.883567,1483.2
1575320130.892003,1484.96
1575320130.904195,1484.04
1575320130.912266,1480.57
1575320130.920355,1474.59
1575320130.9326239,1470.34
1575320130.942106,1469.11
1575320130.949147,1468.74
1575320130.958463,1467.08
1575320130.969569,1462.72
1575320130.977632,1458.17
1575320130.987783,1453.71
1575320130.9983091,1452.71
1575320131.0073888,1454.2
1575320131.014689,1457.3
1575320131.02306,1459.69
1575320131.0350301,1461.29
1575320131.043166,1462.91
1575320131.051562,1463.81
1575320131.0607371,1464.08
1575320131.07313,1464.56
1575320131.080249,1465.42
1575320131.0883331,1465.69
1575320131.1005309,1463.34
1575320131.109854,1456.85
1575320131.1169531,1450.17
1575320131.125577,1442.3
1575320131.137727,1436.25
1575320131.145565,1435.46
1575320131.1540961,1442.08
1575320131.165966,1454.0
1575320131.175362,1463.39
1575320131.182574,1470.97
1575320131.191455,1474.34
1575320131.202973,1477.36
1575320131.211283,1480.74
1575320131.2195609,1484.77
1575320131.23157,1487.15
1575320131.241778,1488.01
1575320131.2480419,1489.46
1575320131.257327,1491.81
1575320131.2687511,1493.95
1575320131.277225,1497.45
1575320131.2851388,1501.26
1575320131.297635,1503.77
1575320131.305377,1505.17
1575320131.313662,1505.11
1575320131.322052,1504.36
1575320131.3341382,1503.58
1575320131.3427498,1504.64
1575320131.350705,1508.28
1575320131.3626418,1518.35
1575320131.371042,1532.99
1575320131.378994,1546.18
1575320131.387531,1562.25
1575320131.399777,1575.85
1575320131.408764,1584.1
1575320131.416109,1591.04
1575320131.4281652,1593.73
1575320131.436555,1592.9
1575320131.444708,1591.71
1575320131.452876,1591.23
1575320131.465278,1591.79
1575320131.4743931,1592.89
1575320131.48161,1594.7
1575320131.494217,1596.88
1575320131.5022469,1597.96
1575320131.5100842,1597.56
1575320131.518613,1595.75
1575320131.5308301,1593.69
1575320131.539689,1590.84
1575320131.547159,1587.58
1575320131.559888,1584.67
1575320131.5676742,1582.08
1575320131.5760388,1580.9
1575320131.5839272,1580.2
1575320131.596172,1579.19
1575320131.604544,1577.68
1575320131.612618,1577.1
1575320131.625304,1578.24
1575320131.6331048,1580.21
1575320131.642026,1580.44
1575320131.649735,1579.2
1575320131.6617868,1577.98
1575320131.6701021,1578.17
1575320131.678837,1578.82
1575320131.6914618,1579.16
1575320131.698634,1578.64
1575320131.707768,1577.85
1575320131.715117,1577.06
1575320131.727248,1577.2
1575320131.73584,1577.71
1575320131.743834,1577.99
1575320131.7574,1577.05
1575320131.764197,1576.09
1575320131.773941,1574.83
1575320131.7805061,1573.29
1575320131.792671,1571.62
1575320131.801054,1568.29
1575320131.809794,1562.89
1575320131.821655,1557.92
1575320131.829716,1553.84
1575320131.838161,1554.88
1575320131.846047,1558.95
1575320131.858782,1565.34
1575320131.866654,1570.16
1575320131.875374,1571.83
1575320131.887273,1571.49
1575320131.895284,1569.52
1575320131.9034932,1567.05
1575320131.911492,1564.81
1575320131.924727,1562.1
1575320131.932169,1560.41
1575320131.941071,1559.9
1575320131.9528131,1560.9
1575320131.9606988,1563.57
1575320131.969268,1565.44
1575320131.9772658,1564.92
1575320131.990242,1561.36
1575320131.9978151,1558.11
1575320132.0080462,1554.9
1575320132.0182872,1553.53
1575320132.026994,1555.47
1575320132.0347168,1564.7
1575320132.042994,1580.85
1575320132.054993,1595.19
1575320132.063387,1609.94
1575320132.072583,1618.14
1575320132.08391,1620.86
1575320132.09237,1622.32
1575320132.100002,1624.0
1575320132.109421,1625.69
1575320132.120586,1627.47
1575320132.1285498,1628.59
1575320132.1372411,1628.54
1575320132.1492,1628.04
1575320132.1584,1628.58
1575320132.1656451,1629.76
1575320132.174878,1630.24
1575320132.186256,1629.74
1575320132.1941829,1626.14
1575320132.202806,1617.49
1575320132.21471,1596.76
1575320132.224255,1567.01
1575320132.231107,1542.03
1575320132.240653,1516.12
1575320132.251759,1499.07
1575320132.259865,1490.33
1575320132.268123,1482.27
1575320132.280302,1475.18
1575320132.2885299,1470.52
1575320132.296598,1467.49
1575320132.304977,1467.65
1575320132.317317,1469.4
1575320132.326175,1472.25
1575320132.333606,1474.99
1575320132.345836,1476.73
1575320132.354402,1478.11
1575320132.362269,1478.31
1575320132.370663,1477.1
1575320132.382774,1476.69
1575320132.391938,1478.05
1575320132.399145,1480.32
1575320132.411201,1481.94
1575320132.419745,1483.29
1575320132.4276009,1483.5
1575320132.436264,1483.91
1575320132.448297,1486.43
1575320132.458127,1490.54
1575320132.4645681,1493.66
1575320132.47672,1495.4
1575320132.485267,1494.44
1575320132.494287,1492.7
1575320132.501701,1491.3
1575320132.513897,1492.45
1575320132.5220668,1495.34
1575320132.530078,1501.79
1575320132.542827,1512.35
1575320132.550797,1523.52
1575320132.559325,1538.24
1575320132.5673048,1551.79
1575320132.5793762,1561.85
1575320132.587693,1573.56
1575320132.595675,1583.77
1575320132.609225,1591.89
1575320132.616014,1596.18
1575320132.624913,1597.52
1575320132.6326249,1594.53
1575320132.644674,1590.12
1575320132.6530628,1584.25
1575320132.6612952,1579.43
1575320132.675091,1577.69
1575320132.681747,1580.49
1575320132.6909041,1587.71
1575320132.698156,1593.43
1575320132.710199,1596.59
1575320132.718773,1593.94
1575320132.7271948,1587.86
1575320132.740104,1575.92
1575320132.747329,1561.71
1575320132.755455,1551.91
1575320132.7637,1544.27
1575320132.7758331,1539.27
1575320132.784275,1534.91
1575320132.792786,1528.13
1575320132.8046908,1521.42
1575320132.812703,1517.77
1575320132.82112,1516.61
1575320132.829033,1517.63
1575320132.842121,1518.08
1575320132.849771,1517.13
1575320132.858828,1515.29
1575320132.870236,1514.03
1575320132.8781881,1513.29
1575320132.8865469,1512.5
1575320132.894603,1512.14
1575320132.908113,1512.48
1575320132.915272,1512.59
1575320132.924709,1509.5
1575320132.936003,1503.31
1575320132.9437702,1491.99
1575320132.952259,1481.88
1575320132.960713,1477.59
1575320132.973449,1476.57
1575320132.980748,1477.74
1575320132.990602,1478.18
1575320133.001473,1476.71
1575320133.010261,1472.9
1575320133.017653,1469.11
1575320133.02619,1465.34
1575320133.038194,1462.76
1575320133.046227,1460.65
1575320133.0545459,1458.17
1575320133.066648,1456.94
1575320133.0759711,1456.98
1575320133.083312,1456.41
1575320133.092764,1453.6
1575320133.103541,1451.71
1575320133.1116202,1454.46
1575320133.120138,1464.32
1575320133.1321442,1477.47
1575320133.141066,1486.81
1575320133.1487842,1495.32
1575320133.158286,1501.3
1575320133.169183,1505.93
1575320133.1771362,1511.89
1575320133.1854012,1517.14
1575320133.1978738,1519.83
1575320133.206096,1520.75
1575320133.2140641,1520.25
1575320133.223903,1520.03
1575320133.2348218,1519.9
1575320133.2434518,1519.65
1575320133.251104,1520.03
1575320133.2634182,1522.25
1575320133.2715929,1525.88
1575320133.27959,1528.94
1575320133.2881742,1531.29
1575320133.300261,1530.1
1575320133.309037,1524.91
1575320133.316803,1520.0
1575320133.3288739,1516.02
1575320133.337093,1514.73
1575320133.345223,1513.66
1575320133.3535218,1509.94
1575320133.365868,1503.45
1575320133.374999,1498.47
1575320133.382268,1495.84
1575320133.394291,1498.61
1575320133.40287,1504.64
1575320133.410722,1513.33
1575320133.419177,1519.46
1575320133.431303,1521.02
1575320133.439672,1519.58
1575320133.447664,1517.11
1575320133.459952,1515.46
1575320133.468287,1513.6
1575320133.476722,1512.04
1575320133.484715,1512.03
1575320133.496845,1512.27
1575320133.505198,1511.07
1575320133.51314,1508.85
1575320133.525864,1505.77
1575320133.5340328,1504.01
1575320133.542614,1503.6
1575320133.5501661,1503.6
1575320133.5623,1503.41
1575320133.571788,1503.32
1575320133.579041,1503.55
1575320133.5916889,1504.44
1575320133.599068,1506.78
1575320133.609208,1509.63
1575320133.61555,1513.88
1575320133.627743,1517.28
1575320133.6363451,1518.62
1575320133.644244,1518.36
1575320133.6588092,1516.23
1575320133.664803,1514.25
1575320133.67496,1512.83
1575320133.681173,1514.52
1575320133.693602,1517.39
1575320133.7017689,1520.33
1575320133.709907,1520.9
1575320133.722029,1519.61
1575320133.730232,1517.93
1575320133.738476,1517.87
1575320133.7467399,1518.83
1575320133.76043,1519.74
1575320133.767264,1519.19
1575320133.7758431,1517.43
1575320133.7878468,1515.48
1575320133.795847,1512.68
1575320133.8042712,1509.94
1575320133.812122,1507.29
1575320133.825949,1502.82
1575320133.832779,1496.92
1575320133.8418188,1491.7
1575320133.853151,1486.1
1575320133.861226,1482.64
1575320133.8698308,1482.48
1575320133.8776581,1484.98
1575320133.892614,1488.66
1575320133.898133,1491.24
1575320133.9072268,1493.02
1575320133.918855,1492.72
1575320133.926778,1491.01
1575320133.935255,1488.32
1575320133.943242,1488.01
1575320133.955607,1492.24
1575320133.9636722,1504.32
1575320133.971953,1520.44
1575320133.984395,1533.3
1575320133.993203,1548.8
1575320134.000753,1564.49
1575320134.009258,1579.01
1575320134.021288,1588.82
1575320134.0293062,1599.02
1575320134.037705,1606.96
1575320134.049727,1612.11
1575320134.058552,1617.81
1575320134.0661812,1622.06
1575320134.077701,1623.24
1575320134.086693,1621.33
1575320134.0949,1615.95
1575320134.10308,1611.11
1575320134.115197,1606.95
1575320134.1253572,1605.73
1575320134.131735,1605.44
1575320134.140797,1604.15
1575320134.1524239,1603.14
1575320134.160989,1603.19
1575320134.168612,1603.91
1575320134.180852,1604.46
1575320134.189239,1604.52
1575320134.197702,1603.48
1575320134.206323,1600.9
1575320134.217918,1598.76
1575320134.2266529,1597.9
1575320134.234329,1599.77
1575320134.246432,1601.88
1575320134.2547898,1602.23
1575320134.262771,1600.58
1575320134.271162,1597.35
1575320134.2833998,1594.13
1575320134.2924318,1588.92
1575320134.2996821,1582.15
1575320134.311759,1576.48
1575320134.320215,1571.15
1575320134.3283358,1568.57
1575320134.336386,1568.11
1575320134.348914,1568.34
1575320134.35811,1568.07
1575320134.365248,1568.03
1575320134.377367,1568.4
1575320134.385838,1569.1
1575320134.393734,1569.06
1575320134.402206,1568.59
1575320134.414353,1568.09
1575320134.424182,1567.5
1575320134.430649,1565.74
1575320134.442961,1562.11
1575320134.45145,1558.5
1575320134.4598432,1553.89
1575320134.4676638,1549.68
1575320134.479899,1546.6
1575320134.4882681,1545.95
1575320134.496298,1547.3
1575320134.509403,1551.14
1575320134.517014,1556.56
1575320134.5296278,1565.22
1575320134.533055,1574.26
1575320134.545262,1580.97
1575320134.5535848,1588.81
1575320134.5616891,1594.53
1575320134.575653,1597.28
1575320134.582478,1599.03
1575320134.591957,1598.95
1575320134.598623,1597.38
1575320134.61089,1593.95
1575320134.6190841,1589.73
1575320134.627352,1585.76
1575320134.640768,1580.35
1575320134.647842,1574.82
1575320134.658149,1570.71
1575320134.6642492,1567.03
1575320134.676842,1565.99
1575320134.684831,1567.61
1575320134.6936152,1571.39
1575320134.7052171,1573.88
1575320134.7133849,1572.32
1575320134.721559,1569.48
1575320134.729653,1568.16
1575320134.7425878,1572.29
1575320134.750345,1578.81
1575320134.758821,1589.65
1575320134.770783,1605.09
1575320134.778771,1621.41
1575320134.787104,1644.28
1575320134.7952251,1665.89
1575320134.8083022,1680.1
1575320134.815829,1692.75
1575320134.8246841,1697.76
1575320134.836572,1694.99
1575320134.8443131,1683.04
1575320134.852948,1663.97
1575320134.860915,1646.79
1575320134.874861,1625.58
1575320134.881414,1605.26
1575320134.889718,1590.03
1575320134.90175,1573.74
1575320134.909792,1562.02
1575320134.918279,1555.57
1575320134.926671,1549.32
1575320134.939393,1543.11
1575320134.946857,1536.77
1575320134.955025,1532.81
1575320134.967232,1531.04
1575320134.975968,1532.93
1575320134.983788,1536.43
1575320134.992308,1541.57
1575320135.0042582,1545.32
1575320135.012362,1545.65
1575320135.020659,1542.99
1575320135.032716,1539.95
1575320135.041915,1538.35
1575320135.049425,1536.98
1575320135.058555,1535.32
1575320135.069816,1534.35
1575320135.0777862,1534.76
1575320135.086205,1536.06
1575320135.0982761,1535.68
1575320135.108385,1531.46
1575320135.114723,1523.32
1575320135.124324,1515.35
1575320135.135453,1506.03
1575320135.144005,1500.32
1575320135.15171,1499.04
1575320135.163947,1500.61
1575320135.172281,1502.91
1575320135.1802251,1503.74
1575320135.1887639,1503.38
1575320135.200938,1503.19
1575320135.209959,1502.68
1575320135.217226,1503.04
1575320135.225854,1509.18
1575320135.237751,1528.06
1575320135.2459269,1553.81
1575320135.25414,1594.57
1575320135.266135,1634.87
1575320135.275148,1660.37
1575320135.2829282,1682.25
1575320135.292105,1696.76
1575320135.3030999,1705.87
1575320135.311286,1714.63
1575320135.319834,1718.77
1575320135.3319108,1717.79
1575320135.340849,1711.52
1575320135.348428,1703.42
1575320135.358788,1698.57
1575320135.3688178,1696.49
1575320135.377036,1697.65
1575320135.385233,1698.82
1575320135.397239,1698.58
1575320135.405762,1693.91
1575320135.4137971,1685.08
1575320135.4220061,1676.52
1575320135.4344919,1665.66
1575320135.4431329,1656.8
1575320135.4507258,1651.59
1575320135.462966,1647.21
1575320135.471369,1645.07
1575320135.479224,1643.78
1575320135.487792,1640.72
1575320135.499928,1636.07
1575320135.508503,1631.93
1575320135.516341,1627.92
1575320135.528363,1625.35
1575320135.536672,1624.03
1575320135.544907,1623.35
1575320135.553277,1624.06
1575320135.5654368,1625.22
1575320135.577388,1626.71
1575320135.582033,1627.79
1575320135.593822,1627.43
1575320135.60215,1624.06
1575320135.6105442,1618.12
1575320135.618569,1613.18
1575320135.6307049,1608.45
1575320135.640633,1605.67
1575320135.647527,1604.58
1575320135.660365,1604.6
1575320135.667758,1605.96
1575320135.67589,1607.13
1575320135.684289,1606.24
1575320135.696347,1602.12
1575320135.704849,1596.69
1575320135.712841,1593.9
1575320135.7258,1594.86
1575320135.7333891,1599.68
1575320135.741974,1603.54
1575320135.74972,1606.31
1575320135.7617888,1606.12
1575320135.770189,1602.9
1575320135.778195,1592.73
1575320135.7919512,1572.59
1575320135.798881,1548.92
1575320135.807838,1512.48
1575320135.815213,1474.28
1575320135.827304,1446.93
1575320135.835686,1420.28
1575320135.843738,1403.72
1575320135.8563259,1397.54
1575320135.86438,1396.49
1575320135.8748548,1398.32
1575320135.880773,1399.34
1575320135.8933,1398.61
1575320135.901408,1395.72
1575320135.9108338,1392.37
1575320135.921578,1391.7
1575320135.929759,1394.52
1575320135.938627,1398.56
1575320135.946196,1399.98
1575320135.959093,1397.28
1575320135.966879,1389.76
1575320135.975499,1381.63
1575320135.987307,1371.04
1575320135.99526,1363.97
1575320136.0037818,1363.74
1575320136.011691,1370.77
1575320136.025246,1383.61
1575320136.032317,1395.41
1575320136.042005,1408.88
1575320136.053044,1418.27
1575320136.060787,1421.97
1575320136.069417,1422.52
1575320136.078162,1421.31
1575320136.091438,1420.32
1575320136.0977201,1419.8
1575320136.1068108,1419.54
1575320136.1182861,1419.25
1575320136.1266391,1419.39
1575320136.1347032,1421.28
1575320136.143126,1425.46
1575320136.155231,1429.41
1575320136.163192,1432.76
1575320136.171596,1432.28
1575320136.183767,1428.71
1575320136.19265,1422.33
1575320136.2002869,1417.4
1575320136.2089028,1415.42
1575320136.220667,1414.87
1575320136.2287428,1414.49
1575320136.237283,1413.43
1575320136.249354,1411.23
1575320136.258761,1407.35
1575320136.265928,1403.73
1575320136.274961,1399.69
1575320136.286561,1397.04
1575320136.294553,1396.73
1575320136.3028202,1398.26
1575320136.314772,1400.75
1575320136.3252401,1402.6
1575320136.331261,1403.62
1575320136.340705,1403.27
1575320136.351912,1403.24
1575320136.360414,1405.12
1575320136.368192,1410.13
1575320136.380453,1416.39
1575320136.3887942,1421.05
1575320136.3967519,1426.03
1575320136.405035,1429.39
1575320136.417435,1431.16
1575320136.4268632,1432.12
1575320136.433791,1430.85
1575320136.4460108,1428.26
1575320136.454407,1424.6
1575320136.46242,1423.92
1575320136.470763,1427.24
1575320136.482836,1434.55
1575320136.491758,1441.03
1575320136.499385,1443.85
1575320136.5113611,1444.83
1575320136.5199559,1444.17
1575320136.5278962,1443.35
1575320136.5364218,1441.98
1575320136.548346,1440.74
1575320136.558021,1440.74
1575320136.564797,1441.61
1575320136.576988,1443.48
1575320136.585801,1446.5
1575320136.59362,1448.95
1575320136.601571,1452.0
1575320136.613835,1454.52
1575320136.622092,1456.16
1575320136.6302028,1457.93
1575320136.643371,1459.65
1575320136.650985,1461.28
1575320136.6598861,1463.33
1575320136.667226,1464.3
1575320136.679504,1464.15
1575320136.687972,1463.99
1575320136.695928,1464.15
1575320136.709366,1464.18
1575320136.716407,1464.27
1575320136.725018,1464.88
1575320136.732755,1466.3
1575320136.744837,1470.03
1575320136.753404,1475.83
1575320136.761846,1480.45
1575320136.775811,1483.47
1575320136.781871,1482.44
1575320136.792338,1480.12
1575320136.7983549,1477.56
1575320136.8105311,1476.35
1575320136.818816,1476.93
1575320136.826765,1478.08
1575320136.8392031,1479.33
1575320136.847448,1480.21
1575320136.855704,1480.75
1575320136.8638651,1481.35
1575320136.876566,1481.31
1575320136.884508,1482.2
1575320136.8956711,1487.3
1575320136.904932,1496.42
1575320136.9149811,1504.03
1575320136.9213948,1510.26
1575320136.929259,1511.87
1575320136.942612,1510.96
1575320136.949873,1507.67
1575320136.959012,1502.46
1575320136.970625,1498.01
1575320136.978314,1493.38
1575320136.986775,1490.19
1575320136.994763,1488.76
1575320137.0077682,1489.26
1575320137.015433,1492.85
1575320137.02439,1497.16
1575320137.036007,1501.96
1575320137.043908,1505.0
1575320137.0524008,1507.17
1575320137.0609238,1509.45
1575320137.073608,1512.73
1575320137.081047,1514.21
1575320137.0924659,1513.39
1575320137.101305,1510.6
1575320137.1110022,1507.37
1575320137.117614,1505.36
1575320137.126199,1502.56
1575320137.138206,1498.71
1575320137.159395,1495.7
1575320137.172056,1493.62
1575320137.174502,1495.32
1575320137.1764789,1499.05
1575320137.1832929,1503.79
1575320137.192548,1506.64
1575320137.2038279,1508.28
1575320137.2118778,1511.79
1575320137.220226,1518.45
1575320137.2322502,1525.08
1575320137.241152,1532.67
1575320137.248898,1539.12
1575320137.258222,1544.93
1575320137.269546,1554.36
1575320137.277318,1565.81
1575320137.285843,1578.11
1575320137.297884,1587.17
1575320137.3070269,1596.62
1575320137.314301,1603.61
1575320137.324415,1608.06
1575320137.3348439,1613.3
1575320137.3429601,1617.82
1575320137.35134,1620.16
1575320137.363335,1621.63
1575320137.371881,1623.26
1575320137.379914,1625.68
1575320137.388204,1630.4
1575320137.4004521,1636.5
1575320137.408909,1641.12
1575320137.4168088,1645.41
1575320137.4289348,1647.92
1575320137.437408,1648.84
1575320137.44534,1648.96
1575320137.453751,1648.49
1575320137.465794,1648.15
1575320137.474566,1647.75
1575320137.482371,1646.39
1575320137.4943922,1644.19
1575320137.5033228,1641.21
1575320137.511232,1638.77
1575320137.5191948,1635.2
1575320137.5314538,1631.05
1575320137.541527,1625.85
1575320137.5478919,1622.17
1575320137.559954,1619.91
1575320137.568419,1617.16
1575320137.576392,1613.96
1575320137.584877,1611.6
1575320137.596836,1609.83
1575320137.605191,1609.04
1575320137.6133928,1609.48
1575320137.625887,1612.9
1575320137.633695,1621.38
1575320137.642743,1631.47
1575320137.650423,1645.45
1575320137.662415,1657.99
1575320137.6709068,1665.41
1575320137.6789289,1671.13
1575320137.691587,1673.56
1575320137.699444,1675.08
1575320137.7084649,1678.19
1575320137.7158332,1682.37
1575320137.728014,1684.33
1575320137.736494,1683.15
1575320137.744309,1679.12
1575320137.75842,1674.45
1575320137.7649128,1671.03
1575320137.774077,1667.65
1575320137.78126,1664.3
1575320137.7934349,1660.74
1575320137.802003,1655.23
1575320137.8107588,1649.79
1575320137.822291,1645.73
1575320137.830316,1640.31
1575320137.8387818,1634.8
1575320137.846735,1631.23
1575320137.8596349,1627.73
1575320137.8673742,1625.43
1575320137.875903,1624.43
1575320137.888063,1624.34
1575320137.896003,1623.51
1575320137.904265,1619.37
1575320137.9123032,1609.27
1575320137.925524,1596.59
1575320137.932702,1587.34
1575320137.941556,1578.38
1575320137.953423,1571.42
1575320137.961547,1566.57
1575320137.9698691,1561.4
1575320137.977826,1556.81
1575320137.9913821,1552.15
1575320137.998393,1549.12
1575320138.0075,1548.16
1575320138.01903,1551.57
1575320138.026895,1556.56
1575320138.035514,1563.57
1575320138.044089,1569.61
1575320138.056138,1572.68
1575320138.063817,1574.01
1575320138.072279,1573.34
1575320138.084238,1572.1
1575320138.092551,1570.18
1575320138.100833,1567.24
1575320138.109389,1564.4
1575320138.121411,1561.09
1575320138.129513,1559.19
1575320138.137761,1558.17
1575320138.149882,1556.41
1575320138.158536,1553.87
1575320138.1664221,1552.21
1575320138.1750772,1551.27
1575320138.186898,1551.28
1575320138.195074,1551.18
1575320138.20331,1549.5
1575320138.2155159,1545.13
1575320138.224766,1538.78
1575320138.231803,1534.34
1575320138.242069,1531.41
1575320138.252345,1531.7
1575320138.260389,1533.19
1575320138.2689059,1534.51
1575320138.2810502,1534.05
1575320138.2898922,1532.6
1575320138.297358,1530.71
1575320138.305959,1528.48
1575320138.31797,1526.09
1575320138.3264189,1523.29
1575320138.334444,1522.26
1575320138.346417,1523.31
1575320138.3550122,1527.03
1575320138.363012,1532.59
1575320138.371213,1537.68
1575320138.383509,1544.84
1575320138.392477,1551.06
1575320138.399915,1554.01
1575320138.411971,1554.96
1575320138.4204218,1554.53
1575320138.428561,1554.49
1575320138.4368389,1555.67
1575320138.448972,1557.81
1575320138.4591238,1559.6
1575320138.46534,1560.3
1575320138.4776042,1559.6
1575320138.485992,1557.37
1575320138.494411,1554.65
1575320138.50249,1549.68
1575320138.514506,1542.17
1575320138.5238159,1535.42
1575320138.530997,1528.64
1575320138.54351,1525.1
1575320138.55138,1524.33
1575320138.5598989,1524.51
1575320138.567841,1524.34
1575320138.579871,1523.0
1575320138.588546,1519.99
1575320138.596371,1516.53
1575320138.60908,1514.45
1575320138.616755,1512.94
1575320138.625531,1511.4
1575320138.633266,1509.78
1575320138.645427,1507.84
1575320138.653858,1507.46
1575320138.661896,1508.71
1575320138.6742232,1510.64
1575320138.6823092,1511.9
1575320138.6912909,1511.87
1575320138.698841,1510.33
1575320138.710958,1508.2
1575320138.719481,1506.93
1575320138.7275882,1506.07
1575320138.741065,1504.8
1575320138.748019,1503.09
1575320138.757217,1501.69
1575320138.764408,1500.45
1575320138.777239,1498.73
1575320138.7847621,1495.78
1575320138.792903,1490.99
1575320138.8054888,1488.65
1575320138.813489,1489.98
1575320138.82181,1494.1
1575320138.8297899,1498.22
1575320138.842747,1500.52
1575320138.850432,1501.8
1575320138.859205,1500.97
1575320138.8710332,1500.07
1575320138.879025,1500.13
1575320138.8873348,1501.47
1575320138.89534,1502.85
1575320138.908833,1503.33
1575320138.915851,1502.36
1575320138.9254742,1500.26
1575320138.936707,1499.32
1575320138.9444811,1500.75
1575320138.953032,1504.58
1575320138.961369,1508.8
1575320138.974262,1514.73
1575320138.981299,1521.93
1575320138.991153,1527.66
1575320139.001965,1532.22
1575320139.010116,1532.52
1575320139.018446,1530.97
1575320139.026912,1528.94
1575320139.039277,1528.83
1575320139.046929,1530.57
1575320139.055273,1533.43
1575320139.067431,1533.27
1575320139.075885,1528.25
1575320139.083971,1514.63
1575320139.092461,1493.87
1575320139.1043131,1473.62
1575320139.112422,1446.49
1575320139.120822,1419.89
1575320139.132909,1401.09
1575320139.141932,1383.9
1575320139.1494248,1375.27
1575320139.1584089,1373.82
1575320139.1700811,1375.32
1575320139.177876,1378.2
1575320139.186562,1381.3
1575320139.1983879,1384.16
1575320139.20789,1387.63
1575320139.2148721,1389.42
1575320139.224801,1388.05
1575320139.235499,1383.11
1575320139.243432,1379.14
1575320139.2518458,1380.98
1575320139.263942,1391.93
1575320139.272386,1410.16
1575320139.280328,1426.29
1575320139.2885928,1444.94
1575320139.301038,1460.46
1575320139.309489,1470.2
1575320139.317507,1479.67
1575320139.3296,1487.07
1575320139.338043,1491.44
1575320139.345943,1494.75
1575320139.3544629,1497.17
1575320139.366508,1500.04
1575320139.375374,1504.1
1575320139.382962,1508.72
1575320139.3950899,1513.51
1575320139.403522,1516.64
1575320139.411527,1519.14
1575320139.420015,1520.48
1575320139.432054,1522.26
1575320139.4422,1526.18
1575320139.448399,1530.73
1575320139.4605079,1533.23
1575320139.469038,1533.8
1575320139.47729,1532.28
1575320139.4853802,1530.63
1575320139.497441,1529.31
1575320139.506478,1528.78
1575320139.513885,1528.95
1575320139.526591,1529.98
1575320139.534496,1531.55
1575320139.542906,1533.34
1575320139.550967,1537.39
1575320139.562935,1543.28
1575320139.571507,1548.11
1575320139.57936,1553.43
1575320139.5880058,1556.62
1575320139.600194,1556.34
1575320139.608425,1552.51
1575320139.6163461,1547.29
1575320139.628598,1543.92
1575320139.636744,1542.88
1575320139.64495,1541.97
1575320139.653551,1538.52
1575320139.6657028,1533.44
1575320139.67443,1525.92
1575320139.681928,1520.31
1575320139.6942441,1518.45
1575320139.702485,1518.79
1575320139.710507,1519.6
1575320139.718903,1519.1
1575320139.730882,1516.96
1575320139.7392251,1514.34
1575320139.747276,1512.95
1575320139.7599292,1511.81
1575320139.767918,1510.43
1575320139.7764008,1508.79
1575320139.7844648,1506.67
1575320139.796433,1504.95
1575320139.805047,1504.6
1575320139.812942,1506.75
1575320139.825515,1512.16
1575320139.8335512,1518.37
1575320139.842391,1526.98
1575320139.849947,1534.18
1575320139.8620212,1538.57
1575320139.87042,1539.43
1575320139.878583,1537.05
1575320139.89117,1532.37
1575320139.899029,1528.36
1575320139.907978,1523.51
1575320139.915453,1519.8
1575320139.9274619,1518.85
1575320139.936019,1520.33
1575320139.944549,1524.78
1575320139.9567602,1529.64
1575320139.964475,1535.17
1575320139.973005,1538.11
1575320139.980812,1537.77
1575320139.993581,1534.73
1575320140.0016818,1530.23
1575320140.009918,1526.92
1575320140.021898,1523.81
1575320140.030019,1522.23
1575320140.0383449,1521.55
1575320140.046335,1520.34
1575320140.059049,1519.0
1575320140.066952,1518.63
1575320140.0753589,1518.76
1575320140.087332,1518.73
1575320140.095596,1518.97
1575320140.1037812,1520.28
1575320140.111912,1523.31
1575320140.1256268,1526.27
1575320140.1322591,1527.78
1575320140.1414762,1528.42
1575320140.153267,1528.39
1575320140.1614861,1528.49
1575320140.1694121,1529.41
1575320140.1774101,1531.58
1575320140.190069,1534.03
1575320140.197976,1536.18
1575320140.2064772,1534.18
1575320140.218486,1529.88
1575320140.2265012,1525.28
1575320140.235019,1525.14
1575320140.2429252,1528.11
1575320140.255434,1533.47
1575320140.2633972,1538.2
1575320140.27187,1539.81
1575320140.2839959,1537.65
1575320140.2925582,1532.32
1575320140.300433,1527.93
1575320140.308906,1524.03
1575320140.321109,1522.96
1575320140.329233,1524.24
1575320140.337454,1526.17
1575320140.349368,1528.62
1575320140.3593369,1529.24
1575320140.365866,1527.49
1575320140.375156,1522.41
1575320140.386644,1515.41
1575320140.394589,1510.26
1575320140.402909,1505.89
1575320140.415076,1504.01
1575320140.424511,1504.03
1575320140.431521,1506.36
1575320140.4405582,1511.93
1575320140.4520361,1518.38
1575320140.4603179,1527.57
1575320140.468478,1536.07
1575320140.480474,1541.54
1575320140.489629,1547.77
1575320140.4968479,1555.7
1575320140.505408,1564.43
1575320140.517483,1576.85
1575320140.525982,1588.8
1575320140.534015,1597.16
1575320140.5459929,1604.3
1575320140.554606,1607.28
1575320140.562444,1607.5
1575320140.57108,1607.04
1575320140.582892,1607.68
1575320140.591984,1609.71
1575320140.59967,1611.62
1575320140.6115851,1612.6
1575320140.619887,1610.89
1575320140.6279502,1608.06
1575320140.6363058,1604.1
1575320140.648465,1600.33
1575320140.657984,1596.35
1575320140.664945,1589.05
1575320140.67753,1581.78
1575320140.6853042,1580.67
1575320140.693574,1589.25
1575320140.701893,1606.95
1575320140.7139142,1623.5
1575320140.72248,1642.13
1575320140.7303748,1656.62
1575320140.743295,1665.92
1575320140.7509089,1676.54
1575320140.759709,1686.6
1575320140.7675362,1692.79
1575320140.7795079,1695.4
1575320140.788165,1692.31
1575320140.7959082,1685.35
1575320140.8087199,1678.8
1575320140.8164392,1671.93
1575320140.824972,1667.52
1575320140.832938,1665.48
1575320140.845108,1663.97
1575320140.8535922,1662.02
1575320140.86143,1659.6
1575320140.8760781,1657.23
1575320140.881951,1657.98
1575320140.891448,1660.62
1575320140.898439,1664.39
1575320140.910542,1666.26
1575320140.9190679,1666.37
1575320140.927777,1665.33
1575320140.9397771,1663.37
1575320140.947422,1661.29
1575320140.955793,1657.43
1575320140.96383,1651.49
1575320140.976832,1645.53
1575320140.984488,1637.73
1575320140.9928331,1631.65
1575320141.004971,1629.79
1575320141.013095,1631.32
1575320141.021579,1634.81
1575320141.029408,1637.17
1575320141.042562,1636.51
1575320141.049959,1632.78
1575320141.0586061,1627.18
1575320141.070445,1622.5
1575320141.078579,1617.6
1575320141.086782,1614.26
1575320141.094908,1613.07
1575320141.108015,1611.91
1575320141.115364,1609.37
1575320141.124724,1605.45
1575320141.13593,1598.27
1575320141.144166,1590.36
1575320141.152422,1585.27
1575320141.160397,1581.71
1575320141.173068,1580.33
1575320141.181099,1579.37
1575320141.190769,1576.62
1575320141.20175,1570.9
1575320141.210164,1564.77
1575320141.218106,1557.87
1575320141.226506,1554.85
1575320141.2384949,1555.56
1575320141.246474,1558.98
1575320141.255094,1563.5
1575320141.26687,1564.46
1575320141.2756622,1559.16
1575320141.283487,1544.79
1575320141.2919931,1525.59
1575320141.304044,1510.37
1575320141.3120918,1495.01
1575320141.320195,1484.94
1575320141.3324459,1480.7
1575320141.341711,1480.11
1575320141.349039,1484.15
1575320141.359086,1489.64
1575320141.36948,1497.09
1575320141.377478,1501.95
1575320141.3860521,1502.35
1575320141.398104,1498.51
1575320141.40735,1492.12
1575320141.414454,1487.87
1575320141.4231129,1486.63
1575320141.4350982,1489.95
1575320141.443614,1494.79
1575320141.451618,1502.09
1575320141.463477,1509.15
1575320141.47205,1513.24
1575320141.480063,1515.0
1575320141.488294,1512.83
1575320141.500621,1508.45
1575320141.509022,1505.51
1575320141.516994,1504.44
1575320141.529043,1505.8
1575320141.5375419,1507.16
1575320141.545564,1507.6
1575320141.5537548,1506.88
1575320141.5661,1507.07
1575320141.5751522,1509.95
1575320141.582304,1515.7
1575320141.594595,1520.89
1575320141.602775,1526.15
1575320141.6110258,1528.73
1575320141.619285,1529.76
1575320141.6314292,1531.56
1575320141.6409159,1533.66
1575320141.647831,1535.56
1575320141.660497,1537.79
1575320141.668556,1538.81
1575320141.67695,1538.73
1575320141.684917,1537.29
1575320141.696973,1535.37
1575320141.70542,1534.91
1575320141.7134562,1536.67
1575320141.7262049,1539.56
1575320141.734069,1540.7
1575320141.742528,1538.95
1575320141.750566,1533.45
1575320141.762548,1526.68
1575320141.7710888,1522.54
1575320141.779058,1520.73
1575320141.7916858,1522.49
1575320141.799579,1524.74
1575320141.8080971,1525.85
1575320141.815968,1523.91
1575320141.828116,1521.15
1575320141.836663,1517.72
1575320141.8445592,1515.62
1575320141.858013,1515.53
1575320141.865105,1516.73
1575320141.8746,1518.09
1575320141.881354,1518.94
1575320141.893847,1519.42
1575320141.902028,1518.37
1575320141.910006,1516.38
1575320141.922475,1513.99
1575320141.9305139,1512.98
1575320141.9389,1513.05
1575320141.946912,1513.19
1575320141.9595158,1513.17
1575320141.9675992,1512.13
1575320141.976137,1509.71
1575320141.988183,1506.51
1575320141.996116,1509.06
1575320142.004538,1518.95
1575320142.012527,1541.57
1575320142.0268512,1570.12
1575320142.03289,1591.46
1575320142.0415082,1611.79
1575320142.05357,1625.3
1575320142.0616078,1632.41
1575320142.070137,1637.49
1575320142.0781388,1638.09
1575320142.092273,1636.74
1575320142.098563,1635.52
1575320142.1080189,1636.43
1575320142.119039,1638.64
1575320142.127545,1642.06
1575320142.135267,1643.92
1575320142.143716,1642.89
1575320142.155979,1638.39
1575320142.163937,1630.52
1575320142.17242,1622.48
1575320142.18448,1610.96
1575320142.193078,1598.06
1575320142.201163,1583.65
1575320142.209569,1569.63
1575320142.2214231,1546.42
1575320142.229515,1517.02
1575320142.238186,1491.5
1575320142.2501252,1461.1
1575320142.258701,1434.96
1575320142.266572,1417.68
1575320142.276795,1400.17
1575320142.286844,1386.23
1575320142.2951522,1377.16
1575320142.303636,1367.74
1575320142.31552,1359.57
1575320142.325113,1354.02
1575320142.332093,1349.95
1575320142.341612,1350.29
1575320142.352612,1353.86
1575320142.3610198,1360.86
1575320142.368952,1367.43
1575320142.381075,1370.69
1575320142.389515,1373.05
1575320142.397451,1375.6
1575320142.4057238,1378.44
1575320142.418147,1383.23
1575320142.426597,1388.88
1575320142.434569,1394.39
1575320142.446558,1397.79
1575320142.455071,1398.68
1575320142.4630458,1394.7
1575320142.471561,1388.72
1575320142.4836822,1381.77
1575320142.492296,1380.59
1575320142.500017,1385.0
1575320142.512253,1394.42
1575320142.520563,1403.57
1575320142.528647,1407.9
1575320142.537041,1407.56
1575320142.548975,1402.13
1575320142.557992,1396.53
1575320142.565538,1390.39
1575320142.577934,1385.82
1575320142.586029,1384.12
1575320142.5941179,1386.94
1575320142.6022642,1396.69
1575320142.614536,1407.14
1575320142.622894,1419.45
1575320142.630941,1430.88
1575320142.6437938,1440.17
1575320142.651663,1452.33
1575320142.659999,1463.71
1575320142.6680372,1471.61
1575320142.680035,1474.2
1575320142.6884842,1473.24
1575320142.696507,1469.59
1575320142.709573,1466.0
1575320142.717003,1463.07
1575320142.72595,1463.4
1575320142.73354,1465.41
1575320142.745682,1467.56
1575320142.7539341,1467.19
1575320142.7621179,1465.29
1575320142.775899,1462.31
1575320142.782519,1461.74
1575320142.7912068,1464.2
1575320142.799062,1470.17
1575320142.811125,1478.01
1575320142.819639,1484.01
1575320142.8280709,1490.11
1575320142.8407779,1493.59
1575320142.84798,1494.18
1575320142.858141,1493.06
1575320142.8644302,1491.75
1575320142.877056,1492.39
1575320142.8850281,1496.2
1575320142.893486,1502.75
1575320142.905515,1509.64
1575320142.9135401,1512.97
1575320142.921958,1512.21
1575320142.929996,1507.49
1575320142.943088,1503.5
1575320142.950513,1501.75
1575320142.959218,1505.15
1575320142.971058,1510.9
1575320142.979125,1520.29
1575320142.987587,1528.38
1575320142.995627,1530.55
1575320143.0087,1525.94
1575320143.0161679,1517.12
1575320143.025375,1510.77
1575320143.036752,1506.94
1575320143.044574,1508.95
1575320143.05316,1514.16
1575320143.0613408,1524.03
1575320143.074645,1535.18
1575320143.081716,1543.21
1575320143.090492,1549.54
1575320143.1018481,1549.79
1575320143.110132,1546.1
1575320143.118409,1539.83
1575320143.127069,1535.34
1575320143.138996,1534.5
1575320143.147114,1536.6
1575320143.1555169,1541.08
1575320143.1674619,1544.69
1575320143.176149,1545.67
1575320143.184196,1544.44
1575320143.1926432,1541.63
1575320143.2046762,1539.3
1575320143.212996,1537.87
1575320143.220944,1538.8
1575320143.233026,1540.71
1575320143.2418618,1542.63
1575320143.24959,1543.07
1575320143.2584262,1542.31
1575320143.2702668,1539.95
1575320143.278186,1535.54
1575320143.2865999,1530.83
1575320143.2987142,1524.79
1575320143.309518,1519.78
1575320143.315032,1517.42
1575320143.324911,1516.54
1575320143.3356721,1517.12
1575320143.343801,1517.29
1575320143.351986,1516.7
1575320143.3641238,1517.55
1575320143.37252,1520.79
1575320143.380529,1524.46
1575320143.388921,1528.88
1575320143.401205,1532.03
1575320143.409759,1533.63
1575320143.417622,1535.5
1575320143.429643,1538.7
1575320143.4379158,1542.69
1575320143.4461281,1548.48
1575320143.454329,1554.0
1575320143.4664881,1558.59
1575320143.475338,1564.87
1575320143.4831119,1572.31
1575320143.4952059,1579.26
1575320143.5037172,1589.19
1575320143.51154,1599.28
1575320143.5201862,1606.26
1575320143.532203,1613.37
1575320143.5422962,1617.8
1575320143.548627,1619.47
1575320143.560686,1619.32
1575320143.569149,1616.87
1575320143.577332,1614.03
1575320143.585495,1611.32
1575320143.597755,1611.43
1575320143.606643,1614.63
1575320143.614014,1619.04
1575320143.6267478,1624.83
1575320143.6345549,1628.75
1575320143.643362,1628.85
1575320143.65096,1624.77
1575320143.663127,1617.9
1575320143.671754,1612.41
1575320143.679654,1607.39
1575320143.692846,1604.38
1575320143.7001789,1602.02
1575320143.708674,1599.33
1575320143.716575,1601.2
1575320143.728738,1607.93
1575320143.737154,1620.93
1575320143.7452621,1633.88
1575320143.753613,1641.88
1575320143.765694,1648.56
1575320143.775557,1653.11
1575320143.7820008,1656.53
1575320143.7941482,1660.68
1575320143.802565,1663.48
1575320143.811313,1664.18
1575320143.818866,1663.95
1575320143.8311942,1663.59
1575320143.839735,1664.98
1575320143.847637,1668.07
1575320143.860197,1673.11
1575320143.8681731,1676.78
1575320143.876705,1677.28
1575320143.884657,1674.5
1575320143.89663,1669.87
1575320143.9051478,1665.88
1575320143.913013,1660.94
1575320143.9260428,1656.97
1575320143.933646,1654.4
1575320143.942065,1651.12
1575320143.950132,1647.78
1575320143.962294,1644.35
1575320143.970536,1638.63
1575320143.978584,1632.59
1575320143.9928908,1628.61
1575320143.999079,1625.89
1575320144.008085,1627.19
1575320144.015578,1629.79
1575320144.0276291,1628.58
1575320144.036132,1616.49
1575320144.044076,1598.74
1575320144.057257,1572.46
1575320144.064543,1548.98
1575320144.0746372,1531.8
1575320144.080962,1522.3
1575320144.09345,1513.35
1575320144.101655,1504.9
1575320144.109913,1497.17
1575320144.12194,1486.93
1575320144.130076,1478.23
1575320144.138539,1473.12
1575320144.1466281,1467.98
1575320144.159233,1462.99
1575320144.167201,1458.82
1575320144.175777,1453.38
1575320144.1875699,1448.44
1575320144.195719,1445.35
1575320144.203958,1443.09
1575320144.212081,1443.22
1575320144.226102,1443.9
1575320144.2325451,1444.42
1575320144.241656,1445.62
1575320144.253412,1447.52
1575320144.261651,1451.14
1575320144.269494,1456.06
1575320144.277602,1460.68
1575320144.291862,1466.35
1575320144.2981918,1471.28
1575320144.306483,1473.67
1575320144.318816,1473.33
1575320144.327177,1471.3
1575320144.3351848,1469.03
1575320144.343601,1468.35
1575320144.355683,1468.65
1575320144.3637261,1468.37
1575320144.371934,1468.14
1575320144.384119,1469.17
1575320144.392674,1471.23
1575320144.400619,1473.38
1575320144.409149,1476.56
1575320144.421188,1479.97
1575320144.4291992,1482.81
1575320144.4374359,1486.54
1575320144.449712,1490.01
1575320144.458592,1492.21
1575320144.466159,1493.46
1575320144.4749792,1493.04
1575320144.4868119,1492.86
1575320144.494844,1493.71
1575320144.502791,1495.14
1575320144.515328,1496.3
1575320144.525239,1496.98
1575320144.531623,1497.62
1575320144.540468,1499.14
1575320144.552285,1501.49
1575320144.560883,1506.73
1575320144.568486,1514.08
1575320144.5805812,1520.5
1575320144.589083,1527.43
1575320144.5970392,1532.45
1575320144.6053581,1535.09
1575320144.617755,1537.14
1575320144.6263099,1537.86
1575320144.63393,1537.14
1575320144.646226,1533.84
1575320144.6546502,1529.72
1575320144.662674,1527.48
1575320144.67122,1526.19
1575320144.6830359,1525.7
1575320144.691616,1525.74
1575320144.699646,1525.85
1575320144.711769,1523.04
1575320144.720384,1516.23
1575320144.728794,1502.35
1575320144.736473,1488.01
1575320144.748607,1480.08
1575320144.758315,1475.75
1575320144.765056,1475.69
1575320144.777558,1475.66
1575320144.785616,1473.96
1575320144.793843,1470.62
1575320144.8020349,1467.93
1575320144.8142169,1467.0
1575320144.822407,1467.28
1575320144.830512,1468.52
1575320144.843402,1469.5
1575320144.850997,1469.77
1575320144.8595982,1468.0
1575320144.867559,1465.88
1575320144.879651,1464.04
1575320144.8882291,1464.42
1575320144.896139,1466.29
1575320144.9093602,1469.66
1575320144.916555,1473.44
1575320144.925257,1476.89
1575320144.933132,1482.81
1575320144.945216,1490.73
1575320144.953841,1497.72
1575320144.9617631,1507.04
1575320144.9745789,1516.73
1575320144.982184,1524.23
1575320144.991593,1531.97
1575320144.998632,1536.29
1575320145.0109172,1536.29
1575320145.01908,1533.85
1575320145.0274,1529.19
1575320145.0397959,1524.18
1575320145.0476658,1521.09
1575320145.05597,1518.82
1575320145.063982,1518.34
1575320145.07716,1519.37
1575320145.084511,1521.95
1575320145.092885,1524.99
1575320145.105011,1526.97
1575320145.113182,1527.85
1575320145.1216798,1527.5
1575320145.129714,1526.95
1575320145.1422138,1525.64
1575320145.1499572,1523.72
1575320145.1586251,1522.25
1575320145.1707149,1521.88
1575320145.178782,1523.19
1575320145.187113,1524.26
1575320145.195195,1524.29
1575320145.208359,1523.09
1575320145.215592,1522.26
1575320145.2246249,1520.88
1575320145.236392,1515.83
1575320145.244301,1505.86
1575320145.2525709,1496.96
1575320145.2605891,1488.85
1575320145.273932,1485.67
1575320145.281077,1486.07
1575320145.289614,1489.47
1575320145.301862,1494.25
1575320145.3100219,1497.57
1575320145.3182762,1499.86
1575320145.3266728,1500.16
1575320145.338614,1500.08
1575320145.346625,1500.16
1575320145.3551779,1501.02
1575320145.367146,1503.24
1575320145.375763,1506.95
1575320145.3836281,1510.42
1575320145.3921201,1512.85
1575320145.4041889,1515.29
1575320145.412241,1515.76
1575320145.420614,1514.1
1575320145.432786,1510.37
1575320145.4426198,1506.53
1575320145.449089,1505.08
1575320145.45898,1507.1
1575320145.4696908,1512.47
1575320145.4776719,1518.37
1575320145.486214,1521.65
1575320145.498306,1523.32
1575320145.507752,1522.58
1575320145.514535,1521.13
1575320145.522997,1519.59
1575320145.5350661,1519.36
1575320145.543693,1520.25
1575320145.5518122,1521.66
1575320145.563664,1522.67
1575320145.5722702,1522.73
1575320145.5801458,1521.18
1575320145.58863,1519.13
1575320145.600994,1518.8
1575320145.609484,1521.23
1575320145.617325,1526.99
1575320145.629399,1533.31
1575320145.637492,1541.37
1575320145.645689,1547.11
1575320145.653879,1549.01
1575320145.6663911,1548.8
1575320145.676096,1546.28
1575320145.682566,1543.8
1575320145.694721,1542.28
1575320145.703208,1543.78
1575320145.711156,1546.85
1575320145.719688,1548.55
1575320145.731838,1549.14
1575320145.740435,1548.64
1575320145.748032,1548.7
1575320145.7608051,1551.05
1575320145.768839,1555.95
1575320145.776876,1560.37
1575320145.785185,1564.16
1575320145.7971442,1564.47
1575320145.8057349,1561.52
1575320145.813619,1554.23
1575320145.8262012,1545.35
1575320145.83428,1539.24
1575320145.842834,1534.59
1575320145.8505678,1533.24
1575320145.862738,1533.18
1575320145.8711731,1531.85
1575320145.879343,1527.94
1575320145.892129,1523.9
1575320145.8997602,1520.1
1575320145.908334,1517.89
1575320145.91604,1516.88
1575320145.928309,1517.02
1575320145.936833,1520.82
1575320145.944886,1529.61
1575320145.958582,1539.54
1575320145.9651651,1552.95
1575320145.975355,1563.82
1575320145.981524,1569.7
1575320145.994258,1574.14
1575320146.002176,1575.24
1575320146.0107121,1574.07
1575320146.022579,1572.57
1575320146.0306299,1572.17
1575320146.039005,1571.72
1575320146.047115,1569.64
1575320146.0597792,1567.46
1575320146.067737,1566.79
1575320146.076267,1566.91
1575320146.088159,1566.35
1575320146.096233,1564.54
1575320146.104649,1561.15
1575320146.112652,1559.85
1575320146.1267352,1561.64
1575320146.13314,1566.24
1575320146.141999,1571.95
1575320146.1536582,1575.61
1575320146.161819,1577.72
1575320146.1702368,1576.97
1575320146.178153,1573.74
1575320146.1919649,1570.16
1575320146.1986098,1565.54
1575320146.208074,1561.13
1575320146.2195241,1557.1
1575320146.227818,1551.65
1575320146.235589,1550.42
1575320146.244172,1557.0
1575320146.257486,1576.04
1575320146.264283,1603.54
1575320146.272417,1626.95
1575320146.284721,1652.67
1575320146.293599,1672.11
1575320146.301229,1682.66
1575320146.309821,1689.85
1575320146.321816,1692.29
1575320146.329723,1692.18
1575320146.338071,1690.82
1575320146.3502731,1689.38
1575320146.359765,1689.26
1575320146.3666382,1690.92
1575320146.375248,1693.83
1575320146.387297,1695.56
1575320146.3951511,1694.69
1575320146.403894,1688.9
1575320146.415655,1680.09
1575320146.425568,1673.81
1575320146.432111,1669.94
1575320146.440475,1670.15
1575320146.452575,1672.33
1575320146.460713,1675.89
1575320146.4692721,1679.24
1575320146.481282,1680.04
1575320146.4907572,1675.04
1575320146.4976692,1662.34
1575320146.506023,1648.77
1575320146.51838,1632.81
1575320146.526808,1621.92
1575320146.534508,1616.21
1575320146.5467148,1610.03
1575320146.555304,1603.26
1575320146.563244,1598.38
1575320146.5718122,1593.4
1575320146.583626,1588.53
1575320146.592569,1583.56
1575320146.600192,1576.0
1575320146.612297,1567.72
1575320146.6207528,1560.9
1575320146.6287959,1552.3
1575320146.636946,1542.78
1575320146.649193,1532.0
1575320146.658438,1523.24
1575320146.665535,1514.28
1575320146.677789,1508.59
1575320146.686234,1506.08
1575320146.694321,1504.35
1575320146.702691,1501.84
1575320146.714738,1498.75
1575320146.723606,1494.69
1575320146.731086,1490.98
1575320146.7438772,1488.31
1575320146.751887,1487.3
1575320146.760267,1491.22
1575320146.7681038,1497.72
1575320146.7801979,1508.56
1575320146.7887301,1520.62
1575320146.796631,1530.54
1575320146.8095539,1542.82
1575320146.817116,1553.31
1575320146.825668,1559.5
1575320146.833754,1564.81
1575320146.845836,1568.59
1575320146.8541162,1571.15
1575320146.862308,1573.73
1575320146.875548,1573.91
1575320146.882764,1571.57
1575320146.891953,1569.31
1575320146.899165,1567.3
1575320146.911322,1567.0
1575320146.9197361,1568.46
1575320146.927684,1572.14
1575320146.941397,1576.2
1575320146.948298,1578.99
1575320146.957878,1581.73
1575320146.9646919,1583.58
1575320146.9773388,1583.8
1575320146.985161,1582.68
1575320146.993749,1582.61
1575320147.005662,1583.03
1575320147.013697,1579.17
1575320147.022282,1564.67
1575320147.030231,1544.8
1575320147.043328,1514.11
1575320147.0505831,1484.89
1575320147.0594099,1467.21
1575320147.071143,1454.44
1575320147.079276,1449.98
1575320147.087486,1449.74
1575320147.095884,1451.0
1575320147.109487,1451.33
1575320147.116412,1450.12
1575320147.12536,1448.95
1575320147.136839,1449.09
1575320147.145047,1451.97
1575320147.1530461,1456.03
1575320147.161848,1461.3
1575320147.174313,1465.02
1575320147.182019,1466.46
1575320147.191226,1466.09
1575320147.202156,1465.29
1575320147.211353,1467.92
1575320147.218534,1480.84
1575320147.227038,1506.26
1575320147.238971,1532.68
1575320147.248072,1566.17
1575320147.2561421,1590.89
1575320147.267644,1602.4
1575320147.276344,1609.27
1575320147.2840378,1612.04
1575320147.292691,1613.53
1575320147.304597,1614.19
1575320147.3127732,1612.63
1575320147.321004,1609.33
1575320147.33325,1602.36
1575320147.3417861,1594.43
1575320147.349616,1589.48
1575320147.359297,1589.22
1575320147.3701,1591.82
1575320147.3809202,1594.29
1575320147.386817,1594.41
1575320147.398744,1593.12
1575320147.407886,1592.27
1575320147.415159,1592.33
1575320147.4239528,1591.2
1575320147.435644,1589.23
1575320147.443796,1587.81
1575320147.45222,1586.31
1575320147.464273,1584.73
1575320147.4735832,1582.79
1575320147.482997,1578.25
1575320147.4890912,1571.33
1575320147.501437,1566.23
1575320147.5098948,1562.69
1575320147.517706,1561.57
1575320147.529768,1561.8
1575320147.538312,1563.53
1575320147.546277,1566.41
1575320147.55455,1569.05
1575320147.5668201,1572.42
1575320147.576312,1576.48
1575320147.583122,1579.47
1575320147.595412,1578.99
1575320147.6042082,1575.11
1575320147.611721,1569.01
1575320147.6199198,1563.11
1575320147.632352,1555.42
1575320147.642884,1549.47
1575320147.6486661,1548.37
1575320147.660864,1551.18
1575320147.669389,1555.52
1575320147.678108,1557.6
1575320147.685475,1558.05
1575320147.69771,1556.69
1575320147.706164,1554.76
1575320147.714313,1553.12
1575320147.726628,1552.4
1575320147.734586,1550.81
1575320147.743291,1547.35
1575320147.751025,1543.96
1575320147.763256,1542.77
1575320147.771709,1541.73
1575320147.779796,1538.89
1575320147.7932658,1535.4
1575320147.80025,1529.85
1575320147.8088472,1522.94
1575320147.816731,1513.9
1575320147.828867,1504.75
1575320147.837366,1492.72
1575320147.845216,1483.33
1575320147.8592482,1479.46
1575320147.8659022,1480.25
1575320147.874794,1486.42
1575320147.882292,1493.0
1575320147.894475,1499.45
1575320147.902858,1503.78
1575320147.91144,1507.96
1575320147.9242702,1515.41
1575320147.9312918,1524.71
1575320147.939709,1530.87
1575320147.947617,1534.13
1575320147.960397,1532.78
1575320147.9684029,1529.85
1575320147.97673,1525.44
1575320147.984798,1521.94
1575320147.996759,1521.25
1575320148.005344,1523.51
1575320148.013233,1528.43
1575320148.026022,1532.38
1575320148.0338318,1536.34
1575320148.0422442,1540.32
1575320148.050345,1544.16
1575320148.062363,1547.05
1575320148.07093,1550.9
1575320148.078922,1554.28
1575320148.091767,1556.27
1575320148.099297,1558.44
1575320148.108583,1560.08
1575320148.115638,1560.84
1575320148.127838,1561.2
1575320148.1363468,1558.73
1575320148.1448221,1554.12
1575320148.1581628,1546.71
1575320148.164716,1540.44
1575320148.1730702,1537.04
1575320148.181076,1532.95
1575320148.193791,1527.46
1575320148.2018318,1522.67
1575320148.2103791,1518.88
1575320148.222213,1518.33
1575320148.2303202,1518.64
1575320148.23857,1516.73
1575320148.246739,1511.28
1575320148.259371,1506.33
1575320148.26744,1502.52
1575320148.275728,1501.72
1575320148.2876632,1501.41
1575320148.295786,1499.87
1575320148.304279,1496.13
1575320148.3123,1492.33
1575320148.325709,1490.02
1575320148.332863,1488.17
1575320148.341779,1487.49
1575320148.353528,1488.76
1575320148.361423,1495.4
1575320148.369848,1510.32
1575320148.3776891,1528.17
1575320148.392662,1552.68
1575320148.3983119,1573.14
1575320148.407257,1583.85
1575320148.418943,1590.16
1575320148.4272919,1591.52
1575320148.4353411,1592.02
1575320148.4437602,1593.78
1575320148.455853,1595.45
1575320148.4638238,1595.92
1575320148.472011,1595.34
1575320148.48432,1593.21
1575320148.4928598,1590.22
1575320148.5008562,1586.1
1575320148.509203,1583.44
1575320148.521369,1583.78
1575320148.529343,1585.54
1575320148.537647,1587.86
1575320148.549669,1589.78
1575320148.55875,1590.95
1575320148.566392,1591.34
1575320148.575673,1589.53
1575320148.587014,1585.71
1575320148.594843,1575.3
1575320148.6032481,1553.91
1575320148.615443,1528.47
1575320148.624665,1489.94
1575320148.6317492,1452.57
1575320148.640915,1428.83
1575320148.652422,1408.99
1575320148.6606941,1398.44
1575320148.668802,1394.85
1575320148.6808572,1393.58
1575320148.689187,1394.3
1575320148.69724,1396.18
1575320148.705761,1399.48
1575320148.71772,1402.63
1575320148.726311,1404.81
1575320148.7340622,1406.23
1575320148.746411,1404.19
1575320148.754566,1396.59
1575320148.762784,1386.64
1575320148.77115,1372.14
1575320148.783381,1360.25
1575320148.792018,1355.67
1575320148.7997901,1357.19
1575320148.8118699,1364.16
1575320148.820398,1371.45
1575320148.82822,1381.05
1575320148.836713,1390.29
1575320148.848923,1397.58
1575320148.858871,1406.57
1575320148.865325,1414.55
1575320148.877491,1419.35
1575320148.8857012,1424.32
1575320148.8942878,1429.72
1575320148.902286,1433.46
1575320148.914248,1436.74
1575320148.9226902,1439.22
1575320148.930717,1441.06
1575320148.943617,1442.32
1575320148.951126,1443.99
1575320148.959776,1446.38
1575320148.9679291,1449.99
1575320148.979798,1453.28
1575320148.988364,1456.73
1575320148.9963012,1459.58
1575320149.010056,1462.31
1575320149.016692,1463.71
1575320149.025805,1464.16
1575320149.033222,1464.17
1575320149.045391,1464.6
1575320149.053867,1465.65
1575320149.061835,1467.31
1575320149.0760052,1468.04
1575320149.082289,1468.97
1575320149.091817,1471.54
1575320149.098895,1474.33
1575320149.110924,1474.68
1575320149.119195,1472.52
1575320149.1272562,1471.38
1575320149.139903,1474.04
1575320149.1479151,1481.23
1575320149.1561642,1488.9
1575320149.164176,1493.51
1575320149.17713,1496.37
1575320149.1846578,1496.59
1575320149.1933608,1496.19
1575320149.205462,1495.63
1575320149.2134058,1495.4
1575320149.221736,1496.66
1575320149.229759,1499.16
1575320149.242435,1503.27
1575320149.250156,1507.25
1575320149.25925,1509.54
1575320149.2708511,1510.9
1575320149.2787688,1513.03
1575320149.28736,1516.8
1575320149.295219,1522.94
1575320149.30989,1527.03
1575320149.3158941,1527.61
1575320149.3247721,1525.57
1575320149.336406,1522.45
1575320149.3451352,1520.09
1575320149.352669,1517.08
1575320149.360692,1513.21
1575320149.373225,1510.38
1575320149.3813918,1509.66
1575320149.389655,1512.74
1575320149.401851,1517.26
1575320149.4103029,1523.05
1575320149.418354,1526.34
1575320149.4268029,1526.27
1575320149.438793,1524.58
1575320149.446773,1524.88
1575320149.455327,1527.73
1575320149.467288,1530.39
1575320149.475969,1532.66
1575320149.483804,1533.81
1575320149.493116,1534.86
1575320149.504273,1536.73
1575320149.51228,1538.33
1575320149.520991,1538.6
1575320149.532694,1537.72
1575320149.54177,1534.6
1575320149.549401,1530.63
1575320149.558998,1524.99
1575320149.5699189,1521.01
1575320149.578571,1520.26
1575320149.5862122,1521.43
1575320149.5983171,1521.62
1575320149.6105669,1519.52
1575320149.6147652,1516.79
1575320149.624154,1518.45
1575320149.635543,1524.38
1575320149.644395,1535.7
1575320149.651809,1548.43
1575320149.663813,1559.06
1575320149.672449,1572.22
1575320149.6803489,1583.65
1575320149.688807,1591.7
1575320149.700873,1596.62
1575320149.709484,1601.89
1575320149.717421,1605.9
1575320149.729374,1607.45
1575320149.737683,1606.82
1575320149.7458172,1605.42
1575320149.754071,1604.27
1575320149.766222,1602.59
1575320149.7756958,1600.51
1575320149.7828522,1598.78
1575320149.7954361,1597.09
1575320149.803355,1595.84
1575320149.8112588,1595.04
1575320149.81985,1594.47
1575320149.831973,1595.67
1575320149.840641,1597.85
1575320149.848205,1599.59
1575320149.860916,1597.41
1575320149.8689868,1593.04
1575320149.877335,1585.97
1575320149.885349,1578.41
1575320149.897307,1573.82
1575320149.905751,1570.86
1575320149.913787,1570.54
1575320149.926892,1572.4
1575320149.934186,1575.04
1575320149.9429061,1578.14
1575320149.9508648,1578.51
1575320149.962914,1575.75
1575320149.971284,1568.79
1575320149.97933,1559.51
1575320149.992843,1552.11
1575320149.9998841,1545.35
1575320150.0086389,1542.92
1575320150.0163798,1545.05
1575320150.028467,1550.98
1575320150.036717,1557.68
1575320150.044815,1562.68
1575320150.059697,1568.5
1575320150.065483,1572.95
1575320150.074682,1574.95
1575320150.0820212,1574.97
1575320150.093945,1572.81
1575320150.102432,1569.83
1575320150.1110132,1565.03
1575320150.12275,1559.6
1575320150.130822,1555.69
1575320150.139319,1551.99
1575320150.147323,1550.62
1575320150.160088,1550.89
1575320150.167953,1548.7
1575320150.17655,1538.9
1575320150.188535,1521.1
1575320150.196415,1504.43
1575320150.2047172,1485.78
1575320150.212822,1471.99
1575320150.2262158,1464.2
1575320150.2332869,1458.01
1575320150.2420568,1455.32
1575320150.253697,1455.39
1575320150.262034,1457.15
1575320150.2704582,1459.6
1575320150.278226,1461.51
1575320150.291744,1463.4
1575320150.298851,1465.73
1575320150.307884,1467.85
1575320150.319614,1470.69
1575320150.327872,1474.29
1575320150.3359091,1477.82
1575320150.344448,1480.91
1575320150.356402,1480.74
1575320150.3642612,1480.18
1575320150.372728,1482.03
1575320150.3848279,1486.83
1575320150.39352,1492.5
1575320150.401525,1496.34
1575320150.409906,1499.17
1575320150.421997,1498.84
1575320150.429963,1497.28
1575320150.438508,1495.34
1575320150.4502678,1495.01
